"time","x","y","position","velocity","acceleration","heading","curvature","rotation"
0,0.581086,2.2089,0,0,2,0,0,0
0.02,0.584273,2.2089,0.00318748,0.04,2,-0.00019388,0,0
0.04,0.587461,2.2089,0.00637495,0.08,2,-0.000387761,0,0
0.06,0.590648,2.2089,0.00956243,0.12,2,-0.000581641,0,0
0.08,0.593836,2.2089,0.0127499,0.16,2,-0.000775522,0,0
0.1,0.597023,2.2089,0.0159374,0.2,2,-0.000969402,0,0
0.12,0.600211,2.2089,0.0191249,0.24,2,-0.00116328,0,0
0.14,0.603398,2.2089,0.0223123,0.28,2,-0.00135716,0,0
0.16,0.606727,2.2089,0.0256409,0.32,2,-0.00157082,0,0
0.18,0.614422,2.20889,0.0333362,0.36,2,-0.00239615,0,0
0.2,0.622117,2.20889,0.0410314,0.4,2,-0.00322148,0,0
0.22,0.629812,2.20889,0.0487267,0.44,2,-0.00404682,0,0
0.24,0.639212,2.20889,0.0581266,0.48,2,-0.00555886,0,0
0.26,0.649241,2.20889,0.0681553,0.52,2,-0.00732417,0,0
0.28,0.659639,2.20889,0.0785533,0.56,2,-0.0093588,0,0
0.3,0.671535,2.20889,0.0904491,0.6,2,-0.0124855,0,0
0.32,0.683531,2.20889,0.102446,0.64,2,-0.0156751,0,0
0.34,0.697034,2.20888,0.115948,0.68,2,-0.0198045,0,0
0.36,0.710796,2.20888,0.12971,0.72,2,-0.0242262,0,0
0.38,0.725731,2.20887,0.144645,0.76,2,-0.029966,0,0
0.4,0.741294,2.20886,0.160208,0.8,2,-0.0364337,0,0
0.42,0.757535,2.20885,0.176449,0.84,2,-0.0436875,0,0
0.44,0.774883,2.20883,0.193798,0.88,2,-0.0521033,0,0
0.46,0.792853,2.20882,0.211767,0.92,2,-0.0616047,0,0
0.48,0.811531,2.20879,0.230445,0.96,2,-0.0723971,0,0
0.5,0.831173,2.20877,0.250087,1,2,-0.0845944,0,0
0.52,0.851623,2.20874,0.270537,1.04,2,-0.0979867,0,0
0.54,0.872824,2.2087,0.291738,1.08,2,-0.113105,0,0
0.56,0.894801,2.20865,0.313716,1.12,2,-0.129941,0,0
0.58,0.917573,2.20859,0.336488,1.16,2,-0.148216,0,0
0.6,0.941149,2.20853,0.360063,1.2,2,-0.168231,0,0
0.62,0.965533,2.20845,0.384448,1.24,2,-0.19069,0,0
0.64,0.990728,2.20836,0.409643,1.28,2,-0.21494,0,0
0.66,1.01673,2.20826,0.435647,1.32,2,-0.241215,0,0
0.68,1.04354,2.20814,0.462456,1.36,2,-0.270132,0,0
0.7,1.07115,2.208,0.490068,1.4,2,-0.301267,0,0
0.72,1.09956,2.20785,0.518475,1.44,2,-0.334675,0,0
0.74,1.12876,2.20767,0.547673,1.48,2,-0.370675,0,0
0.76,1.15874,2.20746,0.577654,1.52,2,-0.409113,0,0
0.78,1.18949,2.20723,0.608412,1.56,2,-0.449756,0,0
0.8,1.22112,2.20697,0.64004,1.6,2,-0.492977,0,0
0.82,1.25354,2.20668,0.67246,1.64,2,-0.538316,0,0
0.84,1.28672,2.20635,0.705639,1.68,2,-0.585244,0,0
0.86,1.3207,2.206,0.739623,1.72,2,-0.633493,0,0
0.88,1.35553,2.20559,0.774452,1.76,2,-0.68237,0,0
0.9,1.39109,2.20515,0.81002,1.8,2,-0.730921,0,0
0.92,1.42751,2.20467,0.846442,1.84,2,-0.778033,0,0
0.94,1.46469,2.20416,0.883631,1.88,2,-0.822651,0,0
0.96,1.5027,2.2036,0.921635,1.92,2,-0.862976,0,0
0.98,1.54148,2.203,0.960426,1.96,2,-0.897093,0,0
1,1.58109,2.20237,1.00004,2,2,-0.923092,0,0
1.02,1.62145,2.20171,1.04041,2.04,2,-0.940259,0,0
1.04,1.66259,2.20104,1.08155,2.06572,-1.16134,-0.945802,0,0
1.06,1.70365,2.20036,1.12262,2.03603,-2,-0.940513,0,0
1.08,1.74397,2.1997,1.16294,1.99603,-2,-0.924226,0,0
1.1,1.78347,2.19907,1.20245,1.95603,-2,-0.898234,0,0
1.12,1.8222,2.19848,1.24118,1.91603,-2,-0.864305,0,0
1.14,1.8601,2.19792,1.27908,1.87603,-2,-0.82423,0,0
1.16,1.89723,2.1974,1.31622,1.83603,-2,-0.780131,0,0
1.18,1.93354,2.19692,1.35253,1.79603,-2,-0.733259,0,0
1.2,1.96905,2.19648,1.38804,1.75603,-2,-0.684894,0,0
1.22,2.00381,2.19608,1.4228,1.71603,-2,-0.636118,0,0
1.24,2.03768,2.19572,1.45668,1.67603,-2,-0.58805,0,0
1.26,2.07079,2.19539,1.4898,1.63603,-2,-0.541151,0,0
1.28,2.10315,2.1951,1.52215,1.59603,-2,-0.495833,0,0
1.3,2.13465,2.19484,1.55365,1.55603,-2,-0.452854,0,0
1.32,2.16534,2.19461,1.58435,1.51603,-2,-0.412103,0,0
1.34,2.19525,2.1944,1.61426,1.47603,-2,-0.373582,0,0
1.36,2.22438,2.19422,1.64339,1.43603,-2,-0.337644,0,0
1.38,2.25272,2.19406,1.67172,1.39603,-2,-0.304131,0,0
1.4,2.28026,2.19392,1.69926,1.35603,-2,-0.272788,0,0
1.42,2.30699,2.1938,1.726,1.31603,-2,-0.244042,0,0
1.44,2.33292,2.1937,1.75193,1.27603,-2,-0.217638,0,0
1.46,2.35803,2.19361,1.77704,1.23603,-2,-0.193163,0,0
1.48,2.38234,2.19353,1.80134,1.19603,-2,-0.170867,0,0
1.5,2.40583,2.19347,1.82484,1.15603,-2,-0.150755,0,0
1.52,2.42851,2.19341,1.84752,1.11603,-2,-0.132253,0,0
1.54,2.4504,2.19336,1.86941,1.07603,-2,-0.115461,0,0
1.56,2.4715,2.19332,1.89051,1.03603,-2,-0.100394,0,0
1.58,2.49185,2.19329,1.91086,0.996032,-2,-0.0867788,0,0
1.6,2.51149,2.19326,1.9305,0.956032,-2,-0.074226,0,0
1.62,2.53007,2.19324,1.94908,0.916032,-2,-0.0635792,0,0
1.64,2.54793,2.19322,1.96693,0.876032,-2,-0.0540743,0,0
1.66,2.56515,2.19321,1.98416,0.836032,-2,-0.0454501,0,0
1.68,2.5814,2.19319,2.0004,0.796032,-2,-0.0378707,0,0
1.7,2.59683,2.19318,2.01584,0.756032,-2,-0.031429,0,0
1.72,2.61176,2.19318,2.03077,0.716032,-2,-0.0256892,0,0
1.74,2.62538,2.19317,2.04439,0.676032,-2,-0.0211665,0,0
1.76,2.63883,2.19317,2.05783,0.636032,-2,-0.0167911,0,0
1.78,2.65072,2.19316,2.06973,0.596032,-2,-0.0134217,0,0
1.8,2.66262,2.19316,2.08163,0.556032,-2,-0.0100522,0,0
1.82,2.67283,2.19316,2.09184,0.516032,-2,-0.00811134,0,0
1.84,2.68286,2.19316,2.10187,0.476032,-2,-0.00632678,0,0
1.86,2.69203,2.19316,2.11104,0.436032,-2,-0.00482778,0,0
1.88,2.69972,2.19316,2.11873,0.396032,-2,-0.00381788,0,0
1.9,2.70742,2.19316,2.12643,0.356032,-2,-0.00280798,0,0
1.92,2.71481,2.19316,2.13382,0.316032,-2,-0.00185347,0,0
1.94,2.718,2.19316,2.137,0.276032,-2,-0.00165959,0,0
1.96,2.72118,2.19316,2.14019,0.236032,-2,-0.00146571,0,0
1.98,2.72437,2.19316,2.14338,0.196032,-2,-0.00127183,0,0
2,2.72756,2.19316,2.14657,0.156032,-2,-0.00107795,0,0
2.02,2.73075,2.19316,2.14975,0.116032,-2,-0.00088407,0,0
2.04,2.73393,2.19316,2.15294,0.0760323,-2,-0.00069019,0,0
2.06,2.73712,2.19316,2.15613,0.0360323,-2,-0.000496309,0,0
