"time","x","y","position","velocity","acceleration","heading","curvature","rotation"
0,0.75,4.44,0,0,2,-60,0,-60
0.02,0.751594,4.43724,0.00318748,0.04,2,-59.9998,0,-59.9967
0.04,0.753188,4.43448,0.00637495,0.08,2,-59.9996,0,-59.9868
0.06,0.754781,4.43172,0.00956243,0.12,2,-59.9993,0,-59.9704
0.08,0.756375,4.42896,0.0127499,0.16,2,-59.9991,0,-59.9474
0.1,0.757969,4.4262,0.0159374,0.2,2,-59.9989,0,-59.9178
0.12,0.759563,4.42344,0.0191249,0.24,2,-59.9987,0,-59.8816
0.14,0.761156,4.42068,0.0223123,0.28,2,-59.9984,0,-59.8389
0.16,0.762821,4.41779,0.0256409,0.32,2,-59.9982,0,-59.7896
0.18,0.766669,4.41113,0.0333362,0.36,2,-59.9971,0,-59.7337
0.2,0.770517,4.40447,0.0410314,0.4,2,-59.996,0,-59.6712
0.22,0.774365,4.3978,0.0487267,0.44,2,-59.9949,0,-59.6022
0.24,0.779066,4.38966,0.0581266,0.48,2,-59.9931,0,-59.5265
0.26,0.784081,4.38098,0.0681553,0.52,2,-59.9909,0,-59.4443
0.28,0.789281,4.37197,0.0785533,0.56,2,-59.9884,0,-59.3555
0.3,0.795232,4.36167,0.0904491,0.6,2,-59.9843,0,-59.2602
0.32,0.801234,4.35129,0.102446,0.64,2,-59.98,0,-59.1583
0.34,0.80799,4.3396,0.115948,0.68,2,-59.9744,0,-59.0498
0.36,0.814877,4.32768,0.12971,0.72,2,-59.9684,0,-58.9347
0.38,0.822352,4.31475,0.144645,0.76,2,-59.9611,0,-58.813
0.4,0.830143,4.30128,0.160208,0.8,2,-59.9524,0,-58.6848
0.42,0.838277,4.28722,0.176449,0.84,2,-59.9423,0,-58.55
0.44,0.846969,4.27221,0.193798,0.88,2,-59.9303,0,-58.4086
0.46,0.855974,4.25666,0.211767,0.92,2,-59.9172,0,-58.2606
0.48,0.865336,4.24049,0.230445,0.96,2,-59.9027,0,-58.1061
0.5,0.87519,4.2235,0.250087,1,2,-59.8851,0,-57.945
0.52,0.885455,4.20582,0.270537,1.04,2,-59.8656,0,-57.7773
0.54,0.896101,4.18748,0.291738,1.08,2,-59.8442,0,-57.603
0.56,0.907145,4.16848,0.313716,1.12,2,-59.8202,0,-57.4222
0.58,0.918598,4.1488,0.336488,1.16,2,-59.7932,0,-57.2348
0.6,0.930465,4.12843,0.360063,1.2,2,-59.7636,0,-57.0408
0.62,0.942748,4.10736,0.384448,1.24,2,-59.7313,0,-56.8402
0.64,0.955456,4.08561,0.409643,1.28,2,-59.6949,0,-56.6331
0.66,0.968586,4.06316,0.435647,1.32,2,-59.6553,0,-56.4194
0.68,0.982137,4.04003,0.462456,1.36,2,-59.6122,0,-56.1991
0.7,0.996116,4.01622,0.490068,1.4,2,-59.5646,0,-55.9722
0.72,1.01052,3.99173,0.518475,1.44,2,-59.513,0,-55.7387
0.74,1.02534,3.96658,0.547673,1.48,2,-59.4572,0,-55.4987
0.76,1.04059,3.94076,0.577654,1.52,2,-59.3963,0,-55.2521
0.78,1.05626,3.9143,0.608412,1.56,2,-59.3311,0,-54.9989
0.8,1.07241,3.8871,0.64004,1.6,2,-59.2598,0,-54.7392
0.82,1.08901,3.85925,0.67246,1.64,2,-59.1829,0,-54.4728
0.84,1.10602,3.83077,0.705639,1.68,2,-59.1007,0,-54.1999
0.86,1.1235,3.80162,0.739623,1.72,2,-59.0118,0,-53.9205
0.88,1.14145,3.77178,0.774452,1.76,2,-58.9165,0,-53.6344
0.9,1.15984,3.74133,0.81002,1.8,2,-58.8144,0,-53.3418
0.92,1.17873,3.71019,0.846442,1.84,2,-58.7049,0,-53.0426
0.94,1.19808,3.67843,0.883631,1.88,2,-58.5877,0,-52.7368
0.96,1.21793,3.64602,0.921635,1.92,2,-58.4624,0,-52.4244
0.98,1.23825,3.61298,0.960426,1.96,2,-58.3289,0,-52.1055
1,1.25909,3.5793,1.00004,2,2,-58.186,0,-51.78
1.02,1.28041,3.54502,1.04041,2.04,2,-58.0346,0,-51.4479
1.04,1.3023,3.51007,1.08164,2.08,2,-57.8721,0,-51.1092
1.06,1.32468,3.47454,1.12363,2.12,2,-57.7003,0,-50.764
1.08,1.3476,3.43842,1.16641,2.16,2,-57.517,0,-50.4121
1.1,1.37109,3.40166,1.21003,2.2,2,-57.3223,0,-50.0538
1.12,1.39513,3.36434,1.25443,2.24,2,-57.1153,0,-49.6888
1.14,1.41973,3.32643,1.29962,2.28,2,-56.8964,0,-49.3172
1.16,1.44492,3.28796,1.3456,2.32,2,-56.6635,0,-48.9391
1.18,1.47073,3.24891,1.39242,2.36,2,-56.4167,0,-48.5544
1.2,1.49716,3.20931,1.44002,2.4,2,-56.1548,0,-48.1631
1.22,1.52421,3.16917,1.48843,2.44,2,-55.8777,0,-47.7653
1.24,1.55192,3.12851,1.53763,2.48,2,-55.5842,0,-47.3609
1.26,1.58029,3.08734,1.58763,2.52,2,-55.2735,0,-46.9499
1.28,1.60934,3.04567,1.63842,2.56,2,-54.9448,0,-46.5323
1.3,1.63911,3.00353,1.69002,2.6,2,-54.597,0,-46.1081
1.32,1.6696,2.96091,1.74242,2.64,2,-54.2295,0,-45.6774
1.34,1.70084,2.91786,1.79562,2.68,2,-53.8405,0,-45.2401
1.36,1.73284,2.87437,1.84961,2.72,2,-53.4302,0,-44.7962
1.38,1.76566,2.83049,1.9044,2.76,2,-52.9961,0,-44.3458
1.4,1.7993,2.78621,1.96001,2.8,2,-52.5379,0,-43.8887
1.42,1.83381,2.74159,2.01642,2.84,2,-52.0532,0,-43.4251
1.44,1.86917,2.69663,2.07362,2.88,2,-51.5431,0,-42.9549
1.46,1.90545,2.6514,2.13161,2.92,2,-51.0041,0,-42.4782
1.48,1.94267,2.60587,2.19041,2.96,2,-50.4361,0,-41.9948
1.5,1.98089,2.56013,2.25002,3,2,-49.8365,0,-41.5049
1.52,2.02007,2.51418,2.3104,3.04,2,-49.2066,0,-41.0084
1.54,2.06034,2.46809,2.37162,3.08,2,-48.5413,0,-40.5054
1.56,2.10166,2.42187,2.43361,3.12,2,-47.8427,0,-39.9957
1.58,2.14411,2.37559,2.49641,3.16,2,-47.1074,0,-39.4795
1.6,2.18771,2.32928,2.56001,3.2,2,-46.3353,0,-38.9567
1.62,2.23249,2.283,2.62441,3.24,2,-45.525,0,-38.4273
1.64,2.27851,2.23683,2.68961,3.28,2,-44.6753,0,-37.8914
1.66,2.3258,2.19078,2.75561,3.32,2,-43.7856,0,-37.3489
1.68,2.3744,2.14496,2.82241,3.36,2,-42.8552,0,-36.7998
1.7,2.42434,2.0994,2.89001,3.4,2,-41.8836,0,-36.2441
1.72,2.47566,2.05417,2.95841,3.44,2,-40.8712,0,-35.6818
1.74,2.52841,2.00939,3.02761,3.48,2,-39.8176,0,-35.113
1.76,2.58258,1.96507,3.0976,3.52,2,-38.7246,0,-34.5376
1.78,2.63825,1.92132,3.16841,3.56,2,-37.592,0,-33.9556
1.8,2.69544,1.87824,3.24001,3.6,2,-36.4219,0,-33.3671
1.82,2.75414,1.83586,3.31241,3.64,2,-35.2172,0,-32.7719
1.84,2.81438,1.79428,3.38561,3.68,2,-33.9803,0,-32.1702
1.86,2.87619,1.75362,3.4596,3.71777,0.325953,-32.7141,0,-31.562
1.88,2.93923,1.71412,3.53399,3.72,0,-31.4297,0,-30.9471
1.9,3.00314,1.67602,3.60839,3.72,0,-30.1384,0,-30.3257
1.92,3.06789,1.63939,3.68279,3.72,0,-28.8449,0,-29.6992
1.94,3.13347,1.60425,3.75719,3.72,0,-27.5543,0,-29.0775
1.96,3.19981,1.57058,3.83159,3.72,0,-26.2713,0,-28.4624
1.98,3.26688,1.53839,3.90599,3.72,0,-25.0006,0,-27.8538
2,3.33465,1.50769,3.98039,3.72,0,-23.747,0,-27.2518
2.02,3.40308,1.47848,4.05479,3.72,0,-22.515,0,-26.6565
2.04,3.4721,1.45072,4.12919,3.72,0,-21.3079,0,-26.0676
2.06,3.54168,1.42439,4.20359,3.72,0,-20.1293,0,-25.4854
2.08,3.6118,1.3995,4.27799,3.72,0,-18.9832,0,-24.9097
2.1,3.68238,1.37599,4.35239,3.72,0,-17.8718,0,-24.3406
2.12,3.7534,1.35381,4.42679,3.72,0,-16.7966,0,-23.7781
2.14,3.82482,1.33296,4.50119,3.72,0,-15.7606,0,-23.2222
2.16,3.89659,1.31339,4.57559,3.72,0,-14.7648,0,-22.6728
2.18,3.96869,1.29501,4.64999,3.72,0,-13.8091,0,-22.1301
2.2,4.04108,1.27784,4.72439,3.72,0,-12.8957,0,-21.5938
2.22,4.11373,1.2618,4.79879,3.72,0,-12.0241,0,-21.0642
2.24,4.18661,1.24683,4.87319,3.72,0,-11.1935,0,-20.5412
2.26,4.25968,1.23291,4.94758,3.7178,-1.66181,-10.4052,0,-20.0247
2.28,4.33254,1.22001,5.02158,3.68011,-2,-9.66014,0,-19.5148
2.3,4.40478,1.20818,5.09478,3.64011,-2,-8.96304,0,-19.0114
2.32,4.47636,1.19731,5.16718,3.60011,-2,-8.30932,0,-18.5147
2.34,4.54727,1.18735,5.23878,3.56011,-2,-7.69883,0,-18.0245
2.36,4.61748,1.1782,5.30959,3.52011,-2,-7.12741,0,-17.5409
2.38,4.68698,1.16985,5.37959,3.48011,-2,-6.59552,0,-17.0639
2.4,4.75575,1.1622,5.44879,3.44011,-2,-6.09849,0,-16.5934
2.42,4.8238,1.15522,5.51719,3.40011,-2,-5.63578,0,-16.1296
2.44,4.8911,1.14882,5.5848,3.36011,-2,-5.2039,0,-15.6723
2.46,4.95764,1.14301,5.65159,3.32011,-2,-4.80331,0,-15.2216
2.48,5.02344,1.13769,5.7176,3.28011,-2,-4.42926,0,-14.7774
2.5,5.08846,1.13286,5.7828,3.24011,-2,-4.08258,0,-14.3398
2.52,5.15271,1.12846,5.8472,3.20011,-2,-3.75985,0,-13.9089
2.54,5.21618,1.12445,5.9108,3.16011,-2,-3.46013,0,-13.4844
2.56,5.27888,1.12082,5.97361,3.12011,-2,-3.18222,0,-13.0666
2.58,5.34079,1.11752,6.0356,3.08011,-2,-2.92404,0,-12.6553
2.6,5.40193,1.11452,6.09682,3.04011,-2,-2.68477,0,-12.2507
2.62,5.46226,1.11181,6.15721,3.00011,-2,-2.46319,0,-11.8525
2.64,5.52181,1.10936,6.21681,2.96011,-2,-2.25774,0,-11.461
2.66,5.58058,1.10714,6.27562,2.92011,-2,-2.06768,0,-11.076
2.68,5.63854,1.10514,6.33361,2.88011,-2,-1.89177,0,-10.6977
2.7,5.69571,1.10334,6.39081,2.84011,-2,-1.72943,0,-10.3259
2.72,5.7521,1.10171,6.44722,2.80011,-2,-1.57898,0,-9.96063
2.74,5.80769,1.10024,6.50283,2.76011,-2,-1.44017,0,-9.60197
2.76,5.86246,1.09893,6.55763,2.72011,-2,-1.31247,0,-9.24989
2.78,5.91645,1.09774,6.61162,2.68011,-2,-1.19439,0,-8.90439
2.8,5.96964,1.09669,6.66482,2.64011,-2,-1.08595,0,-8.56546
2.82,6.02203,1.09574,6.71722,2.60011,-2,-0.98576,0,-8.23311
2.84,6.07362,1.0949,6.76882,2.56011,-2,-0.893898,0,-7.90734
2.86,6.12442,1.09414,6.81962,2.52011,-2,-0.809435,0,-7.58814
2.88,6.17442,1.09347,6.86963,2.48011,-2,-0.731787,0,-7.27552
2.9,6.22361,1.09287,6.91883,2.44011,-2,-0.660824,0,-6.96947
2.92,6.27202,1.09234,6.96723,2.40011,-2,-0.595515,0,-6.67
2.94,6.31962,1.09187,7.01484,2.36011,-2,-0.536067,0,-6.3771
2.96,6.36644,1.09145,7.06166,2.32011,-2,-0.481415,0,-6.09078
2.98,6.41242,1.09109,7.10764,2.28011,-2,-0.431937,0,-5.81104
3,6.45761,1.09077,7.15283,2.24011,-2,-0.386683,0,-5.53788
3.02,6.50201,1.09048,7.19724,2.20011,-2,-0.345493,0,-5.27128
3.04,6.54563,1.09023,7.24086,2.16011,-2,-0.308008,0,-5.01127
3.06,6.58842,1.09002,7.28364,2.12011,-2,-0.274052,0,-4.75783
3.08,6.63041,1.08983,7.32564,2.08011,-2,-0.243384,0,-4.51097
3.1,6.67164,1.08966,7.36687,2.04011,-2,-0.215411,0,-4.27068
3.12,6.71201,1.08952,7.40724,2.00011,-2,-0.190462,0,-4.03697
3.14,6.75163,1.0894,7.44685,1.96011,-2,-0.167773,0,-3.80984
3.16,6.79042,1.08929,7.48565,1.92011,-2,-0.147496,0,-3.58928
3.18,6.82843,1.0892,7.52365,1.88011,-2,-0.129221,0,-3.3753
3.2,6.86562,1.08912,7.56084,1.84011,-2,-0.11292,0,-3.16789
3.22,6.90204,1.08905,7.59727,1.80011,-2,-0.0983173,0,-2.96706
3.24,6.93761,1.089,7.63284,1.76011,-2,-0.0853392,0,-2.77281
3.26,6.97244,1.08895,7.66767,1.72011,-2,-0.0738323,0,-2.58513
3.28,7.00643,1.08891,7.70166,1.68011,-2,-0.0635463,0,-2.40403
3.3,7.03961,1.08887,7.73484,1.64011,-2,-0.05464,0,-2.2295
3.32,7.07203,1.08884,7.76726,1.60011,-2,-0.0466067,0,-2.06155
3.34,7.10366,1.08882,7.79889,1.56011,-2,-0.0396545,0,-1.90018
3.36,7.13442,1.0888,7.82965,1.52011,-2,-0.0336145,0,-1.74538
3.38,7.16441,1.08878,7.85963,1.48011,-2,-0.0282897,0,-1.59716
3.4,7.1936,1.08877,7.88883,1.44011,-2,-0.0237316,0,-1.45551
3.42,7.22201,1.08876,7.91724,1.40011,-2,-0.0197243,0,-1.32044
3.44,7.24963,1.08875,7.94485,1.36011,-2,-0.0163061,0,-1.19195
3.46,7.27644,1.08874,7.97167,1.32011,-2,-0.0134137,0,-1.07003
3.48,7.30244,1.08874,7.99767,1.28011,-2,-0.0108967,0,-0.954685
3.5,7.32764,1.08873,8.02287,1.24011,-2,-0.00880915,0,-0.845919
3.52,7.35203,1.08873,8.04726,1.20011,-2,-0.0070796,0,-0.743729
3.54,7.37561,1.08873,8.07083,1.16011,-2,-0.0055982,0,-0.648116
3.56,7.39838,1.08873,8.09361,1.12011,-2,-0.00438571,0,-0.559078
3.58,7.42036,1.08873,8.11559,1.08011,-2,-0.00340657,0,-0.476616
3.6,7.44156,1.08872,8.13679,1.04011,-2,-0.00259675,0,-0.40073
3.62,7.46202,1.08872,8.15724,1.00011,-2,-0.00191945,0,-0.331421
3.64,7.48166,1.08872,8.17689,0.960107,-2,-0.00139995,0,-0.268687
3.66,7.50034,1.08872,8.19557,0.920107,-2,-0.00102177,0,-0.212529
3.68,7.51831,1.08872,8.21354,0.880107,-2,-0.000709358,0,-0.162948
3.7,7.53566,1.08872,8.23089,0.840107,-2,-0.000449296,0,-0.119942
3.72,7.55191,1.08872,8.24713,0.800107,-2,-0.000286586,0,-0.0835125
3.74,7.56747,1.08872,8.2627,0.760107,-2,-0.000163182,0,-0.053659
3.76,7.58241,1.08872,8.27763,0.720107,-2,-7.65683e-05,0,-0.0303815
3.78,7.59617,1.08872,8.2914,0.680107,-2,-2.15998e-05,0,-0.01368
3.8,7.60968,1.08872,8.3049,0.640107,-2,2.62257e-05,0,-0.00355461
3.82,7.62168,1.08872,8.3169,0.600107,-2,3.96509e-05,0,-5.19525e-06
3.84,7.63357,1.08872,8.3288,0.560107,-2,5.06727e-05,0,0
3.86,7.64397,1.08872,8.3392,0.520107,-2,4.9278e-05,0,0
3.88,7.654,1.08872,8.34923,0.480107,-2,4.47694e-05,0,0
3.9,7.66341,1.08872,8.35864,0.440107,-2,3.98396e-05,0,0
3.92,7.6711,1.08872,8.36633,0.400107,-2,3.37523e-05,0,0
3.94,7.6788,1.08872,8.37403,0.360107,-2,2.7665e-05,0,0
3.96,7.6865,1.08872,8.38172,0.320107,-2,2.15777e-05,0,0
3.98,7.68984,1.08872,8.38506,0.280107,-2,1.92194e-05,0,0
4,7.69302,1.08872,8.38825,0.240107,-2,1.69923e-05,0,0
4.02,7.69621,1.08872,8.39144,0.200107,-2,1.47652e-05,0,0
4.04,7.6994,1.08872,8.39463,0.160107,-2,1.25381e-05,0,0
4.06,7.70259,1.08872,8.39781,0.120107,-2,1.03109e-05,0,0
4.08,7.70577,1.08872,8.401,0.0801073,-2,8.08384e-06,0,0
4.1,7.70896,1.08872,8.40419,0.0401073,-2,5.85674e-06,0,0
4.12,7.71215,1.08872,8.40738,0.00010729,-2,3.62963e-06,0,0
