"time","x","y","position","velocity","acceleration","heading","curvature","rotation"
0,0.738482,4.22356,0,0,2.5,-60,0,-60
0.02,0.740264,4.22048,0.00356371,0.05,2.5,-59.9995,0,-59.9971
0.04,0.742046,4.21739,0.00712741,0.1,2.5,-59.999,0,-59.9883
0.06,0.743828,4.21431,0.0106911,0.15,2.5,-59.9985,0,-59.9736
0.08,0.74561,4.21122,0.0142548,0.2,2.5,-59.998,0,-59.953
0.1,0.747391,4.20813,0.0178185,0.25,2.5,-59.9975,0,-59.9266
0.12,0.749173,4.20505,0.0213822,0.3,2.5,-59.9971,0,-59.8943
0.14,0.750955,4.20196,0.0249459,0.35,2.5,-59.9966,0,-59.8561
0.16,0.754937,4.19507,0.0329074,0.4,2.5,-59.9944,0,-59.8121
0.18,0.75924,4.18762,0.0415109,0.45,2.5,-59.992,0,-59.7622
0.2,0.763542,4.18017,0.0501144,0.5,2.5,-59.9895,0,-59.7064
0.22,0.769047,4.17064,0.0611189,0.55,2.5,-59.985,0,-59.6448
0.24,0.774655,4.16093,0.0723313,0.6,2.5,-59.9802,0,-59.5773
0.26,0.78095,4.15004,0.0849109,0.65,2.5,-59.9726,0,-59.5039
0.28,0.787606,4.13852,0.0982109,0.7,2.5,-59.9636,0,-59.4246
0.3,0.794936,4.12585,0.112849,0.75,2.5,-59.952,0,-59.3395
0.32,0.802546,4.1127,0.128046,0.8,2.5,-59.9392,0,-59.2485
0.34,0.810912,4.09825,0.144744,0.85,2.5,-59.9229,0,-59.1516
0.36,0.819679,4.08311,0.162232,0.9,2.5,-59.9036,0,-59.0488
0.38,0.828884,4.06724,0.180583,0.95,2.5,-59.8811,0,-58.9402
0.4,0.838678,4.05037,0.200091,1,2.5,-59.8544,0,-58.8257
0.42,0.849012,4.03258,0.220661,1.05,2.5,-59.8238,0,-58.7053
0.44,0.859828,4.01399,0.242166,1.1,2.5,-59.7886,0,-58.5791
0.46,0.871148,3.99457,0.264647,1.15,2.5,-59.748,0,-58.447
0.48,0.882984,3.9743,0.288125,1.2,2.5,-59.7023,0,-58.309
0.5,0.895343,3.95316,0.312608,1.25,2.5,-59.6511,0,-58.1652
0.52,0.908235,3.93117,0.338101,1.3,2.5,-59.5929,0,-58.0154
0.54,0.921662,3.90832,0.3646,1.35,2.5,-59.5276,0,-57.8599
0.56,0.935621,3.88463,0.392101,1.4,2.5,-59.4555,0,-57.6984
0.58,0.95012,3.8601,0.420595,1.45,2.5,-59.3749,0,-57.5311
0.6,0.965157,3.83474,0.450073,1.5,2.5,-59.2858,0,-57.3578
0.62,0.980725,3.80857,0.480526,1.55,2.5,-59.1888,0,-57.1788
0.64,0.996901,3.78152,0.512041,1.6,2.5,-59.0798,0,-56.9938
0.66,1.01364,3.75363,0.544573,1.65,2.5,-58.9613,0,-56.803
0.68,1.03094,3.72497,0.578052,1.7,2.5,-58.8319,0,-56.6063
0.7,1.04882,3.69549,0.612526,1.75,2.5,-58.6904,0,-56.4037
0.72,1.06732,3.66515,0.648062,1.8,2.5,-58.5364,0,-56.1953
0.74,1.08639,3.63409,0.684512,1.85,2.5,-58.3691,0,-55.981
0.76,1.10613,3.60216,0.722055,1.9,2.5,-58.1874,0,-55.7608
0.78,1.12646,3.56951,0.760512,1.95,2.5,-57.9909,0,-55.5348
0.8,1.14748,3.53602,0.80005,2,2.5,-57.7779,0,-55.3028
0.82,1.16912,3.50183,0.840516,2.05,2.5,-57.5486,0,-55.065
0.84,1.19148,3.46684,0.882037,2.1,2.5,-57.3005,0,-54.8214
0.86,1.21452,3.43113,0.924542,2.15,2.5,-57.034,0,-54.5718
0.88,1.23827,3.39471,0.968016,2.2,2.5,-56.7472,0,-54.3164
0.9,1.26277,3.35756,1.01252,2.25,2.5,-56.4392,0,-54.0552
0.92,1.28805,3.31971,1.05803,2.3,2.5,-56.1075,0,-53.788
0.94,1.31409,3.28118,1.10454,2.35,2.5,-55.7531,0,-53.515
0.96,1.34095,3.24201,1.15203,2.4,2.5,-55.3722,0,-53.2361
0.98,1.36864,3.2022,1.20053,2.45,2.5,-54.9657,0,-52.9513
1,1.39722,3.16179,1.25002,2.5,2.5,-54.5294,0,-52.6607
1.02,1.42667,3.12077,1.30052,2.55,2.5,-54.0642,0,-52.3642
1.04,1.45709,3.07921,1.35202,2.6,2.5,-53.5657,0,-52.0618
1.06,1.48845,3.03711,1.40452,2.65,2.5,-53.0348,0,-51.7535
1.08,1.52085,2.99453,1.45803,2.7,2.5,-52.4669,0,-51.4394
1.1,1.55427,2.95148,1.51253,2.75,2.5,-51.8628,0,-51.1194
1.12,1.58879,2.90803,1.56802,2.8,2.5,-51.2181,0,-50.7936
1.14,1.6244,2.86419,1.6245,2.85,2.5,-50.5338,0,-50.4618
1.16,1.66126,2.82004,1.68202,2.9,2.5,-49.8024,0,-50.1242
1.18,1.69931,2.7756,1.74052,2.95,2.5,-49.0272,0,-49.7807
1.2,1.73864,2.73097,1.80001,3,2.5,-48.2034,0,-49.4314
1.22,1.77931,2.68616,1.86052,3.05,2.5,-47.3299,0,-49.0762
1.24,1.82136,2.64128,1.92202,3.1,2.5,-46.404,0,-48.7151
1.26,1.86483,2.59639,1.98451,3.15,2.5,-45.4251,0,-48.3481
1.28,1.9098,2.55155,2.04802,3.2,2.5,-44.3912,0,-47.9753
1.3,1.95632,2.50688,2.11251,3.25,2.5,-43.3008,0,-47.5966
1.32,2.00443,2.46243,2.17801,3.3,2.5,-42.1542,0,-47.212
1.34,2.05419,2.41831,2.24452,3.35,2.5,-40.9509,0,-46.8215
1.36,2.10563,2.37464,2.312,3.4,2.5,-39.692,0,-46.4252
1.38,2.15885,2.3315,2.38051,3.45,2.5,-38.378,0,-46.023
1.4,2.21384,2.28899,2.45002,3.5,2.5,-37.0128,0,-45.6149
1.42,2.27065,2.24726,2.52051,3.55,2.5,-35.5989,0,-45.201
1.44,2.3293,2.20638,2.592,3.6,2.5,-34.1418,0,-44.7812
1.46,2.38982,2.16647,2.66451,3.65,2.5,-32.6466,0,-44.3555
1.48,2.45223,2.12764,2.73801,3.7,2.5,-31.1206,0,-43.924
1.5,2.51653,2.09002,2.81251,3.75,2.5,-29.5723,0,-43.4865
1.52,2.58269,2.05367,2.888,3.79649,0.523789,-28.0111,0,-43.0432
1.54,2.65026,2.0189,2.96399,3.8,0,-26.4568,0,-42.5941
1.56,2.71873,1.98594,3.03999,3.8,0,-24.929,0,-42.139
1.58,2.78806,1.9548,3.11599,3.8,0,-23.4373,0,-41.6781
1.6,2.85817,1.92548,3.19199,3.8,0,-21.9909,0,-41.2113
1.62,2.92899,1.89789,3.26799,3.8,0,-20.5967,0,-40.7416
1.64,3.00044,1.872,3.34399,3.8,0,-19.2613,0,-40.2719
1.66,3.07245,1.84772,3.41999,3.8,0,-17.9901,0,-39.8022
1.68,3.14498,1.82501,3.49599,3.8,0,-16.7879,0,-39.3325
1.7,3.21795,1.80379,3.57199,3.8,0,-15.6595,0,-38.8628
1.72,3.29132,1.78397,3.64799,3.8,0,-14.6057,0,-38.3951
1.74,3.36503,1.76544,3.72399,3.8,0,-13.6277,0,-37.9333
1.76,3.43902,1.74811,3.79999,3.8,0,-12.7261,0,-37.4773
1.78,3.51328,1.73192,3.87599,3.8,0,-11.9029,0,-37.0272
1.8,3.58775,1.71674,3.95199,3.8,0,-11.155,0,-36.583
1.82,3.6624,1.70248,4.02799,3.8,0,-10.4807,0,-36.1447
1.84,3.7372,1.68906,4.10399,3.8,0,-9.88049,0,-35.7122
1.86,3.81213,1.67637,4.17999,3.8,0,-9.35082,0,-35.2856
1.88,3.88717,1.66433,4.25599,3.8,0,-8.88833,0,-34.8648
1.9,3.9623,1.65286,4.33199,3.8,0,-8.49337,0,-34.45
1.92,4.0375,1.64186,4.40799,3.8,0,-8.16043,0,-34.041
1.94,4.11276,1.63125,4.48399,3.8,0,-7.88818,0,-33.6379
1.96,4.18806,1.62097,4.55999,3.8,0,-7.67375,0,-33.2406
1.98,4.26339,1.61093,4.63599,3.8,0,-7.51348,0,-32.8492
2,4.33875,1.60107,4.71199,3.8,0,-7.40609,0,-32.4637
2.02,4.41412,1.59132,4.78799,3.8,0,-7.34701,0,-32.0841
2.04,4.4895,1.58161,4.86399,3.8,0,-7.33531,0,-31.7103
2.06,4.56488,1.57189,4.93999,3.8,0,-7.36676,0,-31.3424
2.08,4.64024,1.5621,5.01599,3.8,0,-7.43973,0,-30.9804
2.1,4.71559,1.55219,5.09199,3.8,0,-7.55129,0,-30.6243
2.12,4.79092,1.54212,5.16799,3.8,0,-7.69846,0,-30.274
2.14,4.86622,1.53182,5.24399,3.8,0,-7.88,0,-29.9296
2.16,4.94149,1.52126,5.31999,3.8,-0.78672,-8.09192,0,-29.5911
2.18,5.01643,1.51045,5.39571,3.76421,-2.5,-8.33224,0,-29.2584
2.2,5.0904,1.49944,5.47049,3.71421,-2.5,-8.59536,0,-28.9316
2.22,5.16333,1.48825,5.54428,3.66421,-2.5,-8.87751,0,-28.6107
2.24,5.23522,1.47682,5.61707,3.61421,-2.5,-9.17688,0,-28.2956
2.26,5.30606,1.46518,5.68886,3.56421,-2.5,-9.48987,0,-27.9864
2.28,5.37583,1.45332,5.75963,3.51421,-2.5,-9.81417,0,-27.6831
2.3,5.44455,1.44122,5.82941,3.46421,-2.5,-10.148,0,-27.3857
2.32,5.51223,1.4289,5.8982,3.41421,-2.5,-10.4884,0,-27.0941
2.34,5.57885,1.41637,5.96599,3.36421,-2.5,-10.8337,0,-26.8085
2.36,5.64439,1.40361,6.03276,3.31421,-2.5,-11.1826,0,-26.5286
2.38,5.7089,1.39066,6.09856,3.26421,-2.5,-11.5328,0,-26.2547
2.4,5.77233,1.37752,6.16333,3.21421,-2.5,-11.8831,0,-25.9866
2.42,5.83471,1.36419,6.22712,3.16421,-2.5,-12.2322,0,-25.7244
2.44,5.89602,1.3507,6.2899,3.11421,-2.5,-12.5787,0,-25.4681
2.46,5.95629,1.33707,6.35169,3.06421,-2.5,-12.9217,0,-25.2176
2.48,6.01548,1.32329,6.41246,3.01421,-2.5,-13.2599,0,-24.973
2.5,6.07364,1.30942,6.47226,2.96421,-2.5,-13.5927,0,-24.7343
2.52,6.13074,1.29544,6.53104,2.91421,-2.5,-13.9191,0,-24.5014
2.54,6.18677,1.28138,6.58881,2.86421,-2.5,-14.2385,0,-24.2745
2.56,6.24178,1.26727,6.6456,2.81421,-2.5,-14.5504,0,-24.0534
2.58,6.29574,1.2531,6.70139,2.76421,-2.5,-14.8541,0,-23.8381
2.6,6.34868,1.23893,6.75619,2.71421,-2.5,-15.1494,0,-23.6288
2.62,6.40054,1.22474,6.80996,2.66421,-2.5,-15.4355,0,-23.4253
2.64,6.45138,1.21057,6.86274,2.61421,-2.5,-15.7123,0,-23.2276
2.66,6.5012,1.19644,6.91452,2.56421,-2.5,-15.9799,0,-23.0359
2.68,6.54998,1.18234,6.96531,2.51421,-2.5,-16.2374,0,-22.85
2.7,6.59776,1.16832,7.01509,2.46421,-2.5,-16.4853,0,-22.67
2.72,6.64451,1.15437,7.06388,2.41421,-2.5,-16.7232,0,-22.4959
2.74,6.69026,1.14053,7.11168,2.36421,-2.5,-16.9511,0,-22.3276
2.76,6.73497,1.12681,7.15844,2.31421,-2.5,-17.1689,0,-22.1652
2.78,6.77867,1.11321,7.20421,2.26421,-2.5,-17.3764,0,-22.0087
2.8,6.82139,1.09977,7.24899,2.21421,-2.5,-17.5745,0,-21.8581
2.82,6.86312,1.08647,7.2928,2.16421,-2.5,-17.7625,0,-21.7133
2.84,6.90384,1.07336,7.33557,2.11421,-2.5,-17.9411,0,-21.5744
2.86,6.94355,1.06043,7.37734,2.06421,-2.5,-18.1094,0,-21.4413
2.88,6.98234,1.0477,7.41816,2.01421,-2.5,-18.2695,0,-21.3142
2.9,7.02006,1.03518,7.45791,1.96421,-2.5,-18.4188,0,-21.1929
2.92,7.05686,1.02288,7.49671,1.91421,-2.5,-18.5604,0,-21.0775
2.94,7.09264,1.01081,7.53447,1.86421,-2.5,-18.6923,0,-20.9679
2.96,7.12751,0.998982,7.57129,1.81421,-2.5,-18.8165,0,-20.8642
2.98,7.16132,0.987416,7.60703,1.76421,-2.5,-18.9315,0,-20.7664
3,7.19425,0.976091,7.64184,1.71421,-2.5,-19.0392,0,-20.6745
3.02,7.22616,0.965048,7.67561,1.66421,-2.5,-19.139,0,-20.5884
3.04,7.25709,0.95428,7.70837,1.61421,-2.5,-19.2307,0,-20.5083
3.06,7.28711,0.943789,7.74016,1.56421,-2.5,-19.3163,0,-20.4339
3.08,7.3162,0.933569,7.771,1.51421,-2.5,-19.3944,0,-20.3655
3.1,7.34427,0.923668,7.80076,1.46421,-2.5,-19.4659,0,-20.3029
3.12,7.37136,0.914075,7.8295,1.41421,-2.5,-19.5315,0,-20.2462
3.14,7.39752,0.904775,7.85727,1.36421,-2.5,-19.5904,0,-20.1954
3.16,7.42274,0.895789,7.88404,1.31421,-2.5,-19.6443,0,-20.1504
3.18,7.44701,0.887115,7.90981,1.26421,-2.5,-19.693,0,-20.1113
3.2,7.47033,0.878755,7.93459,1.21421,-2.5,-19.7362,0,-20.0781
3.22,7.49272,0.870716,7.95837,1.16421,-2.5,-19.7751,0,-20.0508
3.24,7.51417,0.862997,7.98117,1.11421,-2.5,-19.81,0,-20.0293
3.26,7.53472,0.855588,8.00302,1.06421,-2.5,-19.8405,0,-20.0137
3.28,7.55426,0.848533,8.02379,1.01421,-2.5,-19.8669,0,-20.0039
3.3,7.57275,0.841846,8.04345,0.964214,-2.5,-19.89,0,-20.0001
3.32,7.59037,0.835469,8.06219,0.914214,-2.5,-19.9101,0,-20
3.34,7.6072,0.82937,8.08009,0.864214,-2.5,-19.9276,0,-20
3.36,7.6229,0.823676,8.09679,0.814214,-2.5,-19.9417,0,-20
3.38,7.63761,0.818336,8.11244,0.764214,-2.5,-19.9538,0,-20
3.4,7.6518,0.813184,8.12754,0.714214,-2.5,-19.9648,0,-20
3.42,7.66435,0.808623,8.14089,0.664214,-2.5,-19.9725,0,-20
3.44,7.67673,0.804124,8.15406,0.614214,-2.5,-19.98,0,-20
3.46,7.68727,0.800291,8.16528,0.564214,-2.5,-19.9844,0,-20
3.48,7.6978,0.796459,8.17649,0.514214,-2.5,-19.9888,0,-20
3.5,7.70639,0.793335,8.18563,0.464214,-2.5,-19.9915,0,-20
3.52,7.71448,0.790394,8.19423,0.414214,-2.5,-19.9939,0,-20
3.54,7.72256,0.787452,8.20283,0.364214,-2.5,-19.9962,0,-20
3.56,7.72665,0.785963,8.20719,0.314214,-2.5,-19.9969,0,-20
3.58,7.73,0.784744,8.21075,0.264214,-2.5,-19.9974,0,-20
3.6,7.73335,0.783526,8.21431,0.214214,-2.5,-19.9978,0,-20
3.62,7.7367,0.782307,8.21788,0.164214,-2.5,-19.9982,0,-20
3.64,7.74005,0.781088,8.22144,0.114214,-2.5,-19.9986,0,-20
3.66,7.7434,0.779869,8.22501,0.064214,-2.5,-19.999,0,-20
3.68,7.74675,0.77865,8.22857,0.014214,-2.5,-19.9995,0,-20
