"time","x","y","position","velocity","acceleration","heading","curvature","rotation"
0,2.75662,2.93563,0,0,2.5,-40,0,-40
0.02,2.75935,2.93334,0.00356371,0.05,2.5,-39.9998,0,-39.9935
0.04,2.76208,2.93105,0.00712741,0.1,2.5,-39.9996,0,-39.9742
0.06,2.76481,2.92876,0.0106911,0.15,2.5,-39.9994,0,-39.9419
0.08,2.76754,2.92647,0.0142548,0.2,2.5,-39.9993,0,-39.8967
0.1,2.77027,2.92418,0.0178185,0.25,2.5,-39.9991,0,-39.8385
0.12,2.773,2.92189,0.0213822,0.3,2.5,-39.9989,0,-39.7675
0.14,2.77573,2.9196,0.0249459,0.35,2.5,-39.9987,0,-39.6835
0.16,2.78183,2.91448,0.0329074,0.4,2.5,-39.9975,0,-39.5866
0.18,2.78842,2.90895,0.0415109,0.45,2.5,-39.9962,0,-39.4769
0.2,2.79501,2.90342,0.0501144,0.5,2.5,-39.9949,0,-39.3541
0.22,2.80344,2.89635,0.0611189,0.55,2.5,-39.9921,0,-39.2185
0.24,2.81203,2.88914,0.0723313,0.6,2.5,-39.9892,0,-39.07
0.26,2.82167,2.88106,0.0849109,0.65,2.5,-39.985,0,-38.9085
0.28,2.83186,2.87251,0.0982109,0.7,2.5,-39.9802,0,-38.7341
0.3,2.84308,2.86311,0.112849,0.75,2.5,-39.9737,0,-38.5468
0.32,2.85472,2.85334,0.128046,0.8,2.5,-39.9665,0,-38.3466
0.34,2.86752,2.84262,0.144744,0.85,2.5,-39.9569,0,-38.1335
0.36,2.88093,2.83139,0.162232,0.9,2.5,-39.9459,0,-37.9074
0.38,2.895,2.81961,0.180583,0.95,2.5,-39.9331,0,-37.6684
0.4,2.90996,2.80709,0.200091,1,2.5,-39.9177,0,-37.4166
0.42,2.92574,2.79389,0.220661,1.05,2.5,-39.8997,0,-37.1518
0.44,2.94224,2.7801,0.242166,1.1,2.5,-39.8789,0,-36.874
0.46,2.95949,2.76569,0.264647,1.15,2.5,-39.8551,0,-36.5834
0.48,2.97752,2.75065,0.288125,1.2,2.5,-39.8279,0,-36.2798
0.5,2.99633,2.73497,0.312608,1.25,2.5,-39.797,0,-35.9634
0.52,3.01592,2.71866,0.338101,1.3,2.5,-39.7619,0,-35.634
0.54,3.0363,2.70172,0.3646,1.35,2.5,-39.7223,0,-35.2917
0.56,3.05745,2.68415,0.392101,1.4,2.5,-39.6778,0,-34.9365
0.58,3.07939,2.66597,0.420595,1.45,2.5,-39.628,0,-34.5683
0.6,3.10211,2.64718,0.450073,1.5,2.5,-39.5725,0,-34.1873
0.62,3.12559,2.6278,0.480526,1.55,2.5,-39.5098,0,-33.7933
0.64,3.14992,2.60776,0.512041,1.6,2.5,-39.4419,0,-33.3864
0.66,3.17506,2.58711,0.544573,1.65,2.5,-39.3653,0,-32.9666
0.68,3.20096,2.56589,0.578052,1.7,2.5,-39.2814,0,-32.5339
0.7,3.22765,2.54408,0.612526,1.75,2.5,-39.1901,0,-32.0882
0.72,3.25522,2.52166,0.648062,1.8,2.5,-39.0879,0,-31.6297
0.74,3.28353,2.4987,0.684512,1.85,2.5,-38.9764,0,-31.1582
0.76,3.31274,2.47512,0.722055,1.9,2.5,-38.8546,0,-30.6738
0.78,3.34271,2.45102,0.760512,1.95,2.5,-38.7223,0,-30.1765
0.8,3.3736,2.42633,0.80005,2,2.5,-38.5755,0,-29.6662
0.82,3.40527,2.40115,0.840516,2.05,2.5,-38.4162,0,-29.1431
0.84,3.43784,2.37539,0.882037,2.1,2.5,-38.243,0,-28.607
0.86,3.47126,2.34913,0.924542,2.15,2.5,-38.0548,0,-28.058
0.88,3.50554,2.32239,0.968016,2.2,2.5,-37.8505,0,-27.4961
0.9,3.54073,2.29515,1.01252,2.25,2.5,-37.6275,0,-26.9213
0.92,3.57684,2.26745,1.05803,2.3,2.5,-37.3851,0,-26.3336
0.94,3.61386,2.2393,1.10454,2.35,2.5,-37.1226,0,-25.733
0.96,3.6518,2.21073,1.15203,2.4,2.5,-36.8384,0,-25.1194
0.98,3.69069,2.18175,1.20053,2.45,2.5,-36.5308,0,-24.4929
1,3.73054,2.1524,1.25002,2.5,2.5,-36.1978,0,-23.8535
1.02,3.77138,2.1227,1.30052,2.55,2.5,-35.8374,0,-23.2012
1.04,3.81323,2.09268,1.35202,2.6,2.5,-35.4476,0,-22.5359
1.06,3.85612,2.0624,1.40452,2.65,2.5,-35.0248,0,-21.8578
1.08,3.90006,2.03187,1.45803,2.7,2.5,-34.5679,0,-21.1667
1.1,3.94506,2.00114,1.51253,2.75,2.5,-34.0747,0,-20.4627
1.12,3.99116,1.97025,1.56802,2.8,2.5,-33.5429,0,-19.7458
1.14,4.03839,1.93926,1.6245,2.85,2.5,-32.9688,0,-19.016
1.16,4.08682,1.90824,1.68202,2.9,2.5,-32.3458,0,-18.2733
1.18,4.13643,1.87723,1.74052,2.95,2.5,-31.6747,0,-17.5176
1.2,4.18723,1.84629,1.80001,3,2.5,-30.9531,0,-16.749
1.22,4.23935,1.81554,1.86052,3.05,2.5,-30.1712,0,-15.9675
1.24,4.29274,1.78501,1.92202,3.1,2.5,-29.3303,0,-15.1731
1.26,4.34745,1.75482,1.98451,3.15,2.5,-28.4249,0,-14.3658
1.28,4.40356,1.72508,2.04802,3.2,2.5,-27.4487,0,-13.5456
1.3,4.46105,1.69585,2.11251,3.25,2.5,-26.401,0,-12.7124
1.32,4.52,1.66731,2.17801,3.3,2.5,-25.2745,0,-11.8663
1.34,4.58044,1.63955,2.24452,3.35,2.5,-24.0662,0,-11.0073
1.36,4.64234,1.61267,2.312,3.4,2.5,-22.7765,0,-10.1354
1.38,4.70584,1.58695,2.38051,3.45,2.5,-21.3934,0,-9.2506
1.4,4.77087,1.56244,2.45002,3.5,2.5,-19.9224,0,-8.35286
1.42,4.83745,1.53929,2.52051,3.54914,1.51965,-18.3619,0,-7.44219
1.44,4.90529,1.51781,2.59167,3.56,0,-16.7182,0,-6.51861
1.46,4.97378,1.49837,2.66287,3.56,0,-15.0081,0,-5.58212
1.48,5.04283,1.48102,2.73407,3.56,0,-13.2409,0,-4.63462
1.5,5.11238,1.46581,2.80527,3.56,0,-11.4245,0,-3.69516
1.52,5.18238,1.45282,2.87647,3.56,0,-9.56764,0,-2.76862
1.54,5.25277,1.44211,2.94767,3.56,0,-7.68021,0,-1.85499
1.56,5.32348,1.43378,3.01887,3.56,0,-5.77293,0,-0.954278
1.58,5.39443,1.42782,3.09007,3.56,0,-3.85825,0,-0.0664856
1.6,5.46553,1.42423,3.16127,3.56,0,-1.94818,0,0.80839
1.62,5.53662,1.42299,3.23238,3.54116,-2.5,-0.0569342,0,1.67035
1.64,5.60694,1.42404,3.30271,3.49116,-2.5,1.78704,0,2.51939
1.66,5.67618,1.42731,3.37202,3.44116,-2.5,3.56759,0,3.35551
1.68,5.74429,1.43259,3.44034,3.39116,-2.5,5.27919,0,4.17872
1.7,5.81124,1.43974,3.50767,3.34116,-2.5,6.91752,0,4.98901
1.72,5.87695,1.44864,3.57399,3.29116,-2.5,8.47715,0,5.78638
1.74,5.94142,1.45911,3.63931,3.24116,-2.5,9.95799,0,6.57084
1.76,6.00464,1.47101,3.70364,3.19116,-2.5,11.3593,0,7.34237
1.78,6.06656,1.4842,3.76696,3.14116,-2.5,12.6808,0,8.10099
1.8,6.12721,1.49854,3.82928,3.09116,-2.5,13.9252,0,8.8467
1.82,6.18658,1.51391,3.89061,3.04116,-2.5,15.0941,0,9.57948
1.84,6.24466,1.53017,3.95092,2.99116,-2.5,16.1897,0,10.2994
1.86,6.30149,1.54723,4.01026,2.94116,-2.5,17.2162,0,11.0063
1.88,6.35705,1.56494,4.06857,2.89116,-2.5,18.1764,0,11.7003
1.9,6.41136,1.58327,4.12589,2.84116,-2.5,19.0715,0,12.3815
1.92,6.46445,1.60207,4.18221,2.79116,-2.5,19.9081,0,13.0497
1.94,6.51635,1.62124,4.23754,2.74116,-2.5,20.6901,0,13.7049
1.96,6.56706,1.64076,4.29188,2.69116,-2.5,21.4175,0,14.3473
1.98,6.61657,1.66054,4.3452,2.64116,-2.5,22.0937,0,14.9768
2,6.66493,1.6805,4.39751,2.59116,-2.5,22.7238,0,15.5933
2.02,6.71217,1.70057,4.44884,2.54116,-2.5,23.3107,0,16.1969
2.04,6.75828,1.72071,4.49916,2.49116,-2.5,23.8564,0,16.7876
2.06,6.80331,1.74086,4.54849,2.44116,-2.5,24.3642,0,17.3654
2.08,6.84725,1.76097,4.59682,2.39116,-2.5,24.8362,0,17.9302
2.1,6.89011,1.78101,4.64412,2.34116,-2.5,25.274,0,18.4822
2.12,6.93191,1.80093,4.69043,2.29116,-2.5,25.6801,0,19.0212
2.14,6.97269,1.82071,4.73575,2.24116,-2.5,26.0568,0,19.5473
2.16,7.01246,1.84031,4.78009,2.19116,-2.5,26.4061,0,20.0605
2.18,7.05121,1.85969,4.82342,2.14116,-2.5,26.7296,0,20.5608
2.2,7.08894,1.87881,4.86571,2.09116,-2.5,27.0292,0,21.0482
2.22,7.12572,1.89768,4.90705,2.04116,-2.5,27.3069,0,21.5226
2.24,7.1615,1.91626,4.94737,1.99116,-2.5,27.5621,0,21.9841
2.26,7.19631,1.93453,4.98668,1.94116,-2.5,27.797,0,22.4327
2.28,7.23019,1.95247,5.02502,1.89116,-2.5,28.0145,0,22.8684
2.3,7.26309,1.97005,5.06233,1.84116,-2.5,28.2146,0,23.2912
2.32,7.29507,1.98727,5.09865,1.79116,-2.5,28.3983,0,23.701
2.34,7.32614,2.00413,5.13399,1.74116,-2.5,28.5666,0,24.098
2.36,7.35622,2.02056,5.16828,1.69116,-2.5,28.7207,0,24.482
2.38,7.38545,2.03662,5.20162,1.64116,-2.5,28.8621,0,24.8531
2.4,7.41376,2.05227,5.23397,1.59116,-2.5,28.9908,0,25.2113
2.42,7.4411,2.06746,5.26524,1.54116,-2.5,29.1075,0,25.5566
2.44,7.46756,2.08222,5.29555,1.49116,-2.5,29.2135,0,25.8889
2.46,7.49315,2.09656,5.32487,1.44116,-2.5,29.3097,0,26.2084
2.48,7.51785,2.11044,5.35321,1.39116,-2.5,29.3977,0,26.5149
2.5,7.54166,2.12388,5.38055,1.34116,-2.5,29.4763,0,26.8085
2.52,7.56457,2.13685,5.40688,1.29116,-2.5,29.5465,0,27.0892
2.54,7.58659,2.14934,5.4322,1.24116,-2.5,29.6092,0,27.3569
2.56,7.60771,2.16136,5.4565,1.19116,-2.5,29.6649,0,27.6118
2.58,7.62794,2.1729,5.47978,1.14116,-2.5,29.7142,0,27.8537
2.6,7.64729,2.18395,5.50207,1.09116,-2.5,29.7576,0,28.0827
2.62,7.66577,2.19452,5.52336,1.04116,-2.5,29.7959,0,28.2988
2.64,7.68343,2.20464,5.54371,0.991159,-2.5,29.8295,0,28.502
2.66,7.70031,2.21432,5.56317,0.941159,-2.5,29.8592,0,28.6923
2.68,7.71605,2.22337,5.58133,0.891159,-2.5,29.8836,0,28.8696
2.7,7.73099,2.23196,5.59856,0.841159,-2.5,29.9048,0,29.034
2.72,7.74531,2.24019,5.61507,0.791159,-2.5,29.9236,0,29.1856
2.74,7.75839,2.24772,5.63017,0.741159,-2.5,29.9383,0,29.3242
2.76,7.7708,2.25487,5.64449,0.691159,-2.5,29.9512,0,29.4498
2.78,7.78232,2.26151,5.65779,0.641159,-2.5,29.9617,0,29.5626
2.8,7.7929,2.26761,5.67,0.591159,-2.5,29.9702,0,29.6624
2.82,7.80261,2.27321,5.68121,0.541159,-2.5,29.977,0,29.7494
2.84,7.81174,2.27848,5.69176,0.491159,-2.5,29.9829,0,29.8234
2.86,7.8192,2.28278,5.70036,0.441159,-2.5,29.9865,0,29.8845
2.88,7.82665,2.28708,5.70896,0.391159,-2.5,29.9901,0,29.9326
2.9,7.83277,2.29062,5.71603,0.341159,-2.5,29.9928,0,29.9679
2.92,7.83586,2.2924,5.7196,0.291159,-2.5,29.9936,0,29.9902
2.94,7.83894,2.29418,5.72316,0.241159,-2.5,29.9944,0,29.9997
2.96,7.84203,2.29596,5.72672,0.191159,-2.5,29.9952,0,30
2.98,7.84512,2.29774,5.73029,0.141159,-2.5,29.996,0,30
3,7.8482,2.29953,5.73385,0.091159,-2.5,29.9968,0,30
3.02,7.85129,2.30131,5.73742,0.041159,-2.5,29.9976,0,30
