"time","x","y","position","velocity","acceleration","heading","curvature","rotation"
0,7.77887,0.5,0,0,4,165,0,-15
0.02,7.77452,0.501167,0.00450777,0.08,4,165,0,-15.0038
0.04,7.77016,0.502333,0.00901554,0.16,4,165,0,-15.015
0.06,7.76581,0.5035,0.0135233,0.24,4,165,0,-15.0338
0.08,7.76145,0.504667,0.0180311,0.32,4,165,0,-15.0601
0.1,7.7571,0.505833,0.0225389,0.4,4,165,0,-15.0939
0.12,7.7505,0.507603,0.0293753,0.48,4,165.001,0,-15.1353
0.14,7.73998,0.510419,0.040258,0.56,4,165.001,0,-15.1841
0.16,7.72937,0.513262,0.0512441,0.64,4,165.002,0,-15.2405
0.18,7.71567,0.516932,0.0654267,0.72,4,165.003,0,-15.3044
0.2,7.70136,0.520766,0.0802441,0.8,4,165.005,0,-15.3758
0.22,7.68511,0.525119,0.0970674,0.88,4,165.007,0,-15.4547
0.24,7.66726,0.5299,0.11555,0.96,4,165.01,0,-15.5411
0.26,7.64803,0.535049,0.135457,1.04,4,165.013,0,-15.6351
0.28,7.62727,0.540604,0.156944,1.12,4,165.017,0,-15.7365
0.3,7.60493,0.546582,0.180069,1.2,4,165.022,0,-15.8455
0.32,7.581,0.552985,0.204845,1.28,4,165.028,0,-15.962
0.34,7.55547,0.559808,0.231263,1.36,4,165.035,0,-16.086
0.36,7.52839,0.567046,0.2593,1.44,4,165.043,0,-16.2175
0.38,7.49976,0.574691,0.28893,1.52,4,165.052,0,-16.3565
0.4,7.46962,0.582734,0.320122,1.6,4,165.063,0,-16.5031
0.42,7.43801,0.591166,0.352845,1.68,4,165.074,0,-16.6572
0.44,7.40474,0.60003,0.387276,1.76,4,165.088,0,-16.8187
0.46,7.36994,0.609292,0.423286,1.84,4,165.102,0,-16.9878
0.48,7.33364,0.618943,0.460842,1.92,4,165.118,0,-17.1645
0.5,7.29573,0.629012,0.50007,2,4,165.135,0,-17.3486
0.52,7.2563,0.639471,0.540861,2.08,4,165.153,0,-17.5402
0.54,7.21536,0.650316,0.583211,2.16,4,165.173,0,-17.7394
0.56,7.17278,0.661579,0.627255,2.24,4,165.193,0,-17.9461
0.58,7.12869,0.673225,0.67286,2.32,4,165.215,0,-18.1603
0.6,7.08306,0.68526,0.720051,2.4,4,165.236,0,-18.382
0.62,7.03588,0.697684,0.768841,2.48,4,165.259,0,-18.6112
0.64,6.98714,0.710498,0.819237,2.56,4,165.281,0,-18.8479
0.66,6.93684,0.723701,0.871239,2.64,4,165.302,0,-19.0922
0.68,6.88499,0.737291,0.924842,2.72,4,165.323,0,-19.3439
0.7,6.83159,0.751268,0.98004,2.8,4,165.342,0,-19.6032
0.72,6.77665,0.765628,1.03682,2.88,4,165.359,0,-19.87
0.74,6.72015,0.78038,1.09522,2.96,4,165.373,0,-20.1443
0.76,6.66208,0.79553,1.15523,3.04,4,165.383,0,-20.4262
0.78,6.60249,0.811066,1.21681,3.12,4,165.387,0,-20.7155
0.8,6.54132,0.827016,1.28003,3.2,4,165.385,0,-21.0124
0.82,6.47864,0.843364,1.34481,3.28,4,165.375,0,-21.3167
0.84,6.41437,0.860146,1.41123,3.36,4,165.355,0,-21.6286
0.86,6.3486,0.877354,1.47922,3.44,4,165.322,0,-21.948
0.88,6.28129,0.89501,1.5488,3.52,4,165.276,0,-22.275
0.9,6.21242,0.913147,1.62002,3.6,4,165.212,0,-22.6094
0.92,6.14205,0.931782,1.69282,3.68,4,165.127,0,-22.9514
0.94,6.07016,0.950945,1.76722,3.76,4,165.017,0,-23.3008
0.96,5.99678,0.970672,1.8432,3.83349,0.982081,164.88,0,-23.6578
0.98,5.92269,0.990805,1.91998,3.84,0,164.711,0,-24.0223
1,5.84864,1.01118,1.99678,3.84,0,164.51,0,-24.3943
1.02,5.77467,1.03184,2.07358,3.84,0,164.273,0,-24.7739
1.04,5.7008,1.05283,2.15038,3.84,0,163.996,0,-25.1609
1.06,5.62703,1.07421,2.22718,3.84,0,163.677,0,-25.5555
1.08,5.5534,1.09602,2.30398,3.84,0,163.314,0,-25.9573
1.1,5.47991,1.11833,2.38078,3.84,0,162.903,0,-26.3613
1.12,5.40659,1.14118,2.45758,3.84,0,162.444,0,-26.7652
1.14,5.33347,1.16468,2.53438,3.84,0,161.933,0,-27.1692
1.16,5.26057,1.18885,2.61118,3.84,0,161.371,0,-27.5731
1.18,5.18793,1.21377,2.68798,3.84,0,160.758,0,-27.9771
1.2,5.11557,1.23949,2.76478,3.84,0,160.096,0,-28.381
1.22,5.04352,1.26608,2.84158,3.84,0,159.388,0,-28.785
1.24,4.97181,1.29358,2.91838,3.84,0,158.637,0,-29.1889
1.26,4.90048,1.32204,2.99518,3.84,0,157.847,0,-29.5883
1.28,4.82956,1.35151,3.07198,3.84,0,157.026,0,-29.9801
1.3,4.75907,1.382,3.14878,3.84,0,156.18,0,-30.3644
1.32,4.68905,1.41354,3.22558,3.84,0,155.315,0,-30.7412
1.34,4.61951,1.44614,3.30238,3.84,0,154.44,0,-31.1105
1.36,4.55048,1.4798,3.37918,3.84,0,153.563,0,-31.4723
1.38,4.48197,1.51451,3.45598,3.84,0,152.691,0,-31.8266
1.4,4.414,1.55026,3.53278,3.84,0,151.832,0,-32.1733
1.42,4.34657,1.58702,3.60958,3.84,0,150.991,0,-32.5126
1.44,4.27968,1.62476,3.68638,3.84,0,150.174,0,-32.8443
1.46,4.21332,1.66342,3.76318,3.84,0,149.386,0,-33.1685
1.48,4.14749,1.70296,3.83998,3.84,0,148.629,0,-33.4852
1.5,4.08217,1.74336,3.91678,3.84,0,147.907,0,-33.7943
1.52,4.01735,1.78454,3.99358,3.84,0,147.222,0,-34.096
1.54,3.95303,1.8265,4.07038,3.84,0,146.575,0,-34.3901
1.56,3.88917,1.86914,4.14716,3.83587,-2.74332,145.966,0,-34.6768
1.58,3.82635,1.91202,4.22322,3.7642,-4,145.399,0,-34.9559
1.6,3.76523,1.9546,4.29771,3.6842,-4,144.88,0,-35.2275
1.62,3.70579,1.99679,4.3706,3.6042,-4,144.406,0,-35.4915
1.64,3.64798,2.03849,4.44188,3.5242,-4,143.971,0,-35.7481
1.66,3.59179,2.07967,4.51155,3.4442,-4,143.577,0,-35.9971
1.68,3.53713,2.12027,4.57963,3.3642,-4,143.216,0,-36.2387
1.7,3.48399,2.16025,4.64613,3.2842,-4,142.888,0,-36.4727
1.72,3.43237,2.19952,4.711,3.2042,-4,142.59,0,-36.6992
1.74,3.38217,2.23809,4.77431,3.1242,-4,142.318,0,-36.9182
1.76,3.33346,2.27589,4.83596,3.0442,-4,142.072,0,-37.1296
1.78,3.28613,2.31292,4.89605,2.9642,-4,141.848,0,-37.3336
1.8,3.24019,2.34914,4.95455,2.8842,-4,141.645,0,-37.53
1.82,3.19566,2.38449,5.01141,2.8042,-4,141.462,0,-37.719
1.84,3.15247,2.419,5.06669,2.7242,-4,141.296,0,-37.9004
1.86,3.11063,2.45262,5.12037,2.6442,-4,141.146,0,-38.0743
1.88,3.0701,2.48534,5.17245,2.5642,-4,141.01,0,-38.2406
1.9,3.0309,2.51715,5.22294,2.4842,-4,140.888,0,-38.3995
1.92,2.99301,2.54802,5.27181,2.4042,-4,140.778,0,-38.5508
1.94,2.95641,2.57795,5.31909,2.3242,-4,140.68,0,-38.6947
1.96,2.92107,2.60693,5.36479,2.2442,-4,140.591,0,-38.831
1.98,2.88701,2.63496,5.40891,2.1642,-4,140.512,0,-38.9598
2,2.85428,2.66196,5.45133,2.0842,-4,140.442,0,-39.0811
2.02,2.82277,2.68802,5.49223,2.0042,-4,140.379,0,-39.1948
2.04,2.79252,2.71309,5.53151,1.9242,-4,140.324,0,-39.3011
2.06,2.76354,2.73715,5.56918,1.8442,-4,140.275,0,-39.3998
2.08,2.73581,2.76021,5.60525,1.7642,-4,140.232,0,-39.491
2.1,2.70925,2.78233,5.63981,1.6842,-4,140.195,0,-39.5748
2.12,2.68407,2.80332,5.6726,1.6042,-4,140.162,0,-39.6509
2.14,2.66007,2.82336,5.70386,1.5242,-4,140.134,0,-39.7196
2.16,2.63728,2.8424,5.73356,1.4442,-4,140.11,0,-39.7808
2.18,2.61571,2.86043,5.76167,1.3642,-4,140.089,0,-39.8344
2.2,2.59539,2.87743,5.78817,1.2842,-4,140.071,0,-39.8806
2.22,2.57633,2.89339,5.81303,1.2042,-4,140.057,0,-39.9192
2.24,2.55853,2.9083,5.83624,1.1242,-4,140.044,0,-39.9503
2.26,2.54199,2.92216,5.85783,1.0442,-4,140.035,0,-39.9739
2.28,2.52665,2.93502,5.87784,0.964203,-4,140.026,0,-39.9899
2.3,2.51239,2.94697,5.89644,0.884203,-4,140.02,0,-39.9985
2.32,2.4995,2.95778,5.91326,0.804203,-4,140.015,0,-40
2.34,2.48804,2.96739,5.92822,0.724203,-4,140.011,0,-40
2.36,2.47718,2.97651,5.9424,0.644203,-4,140.008,0,-40
2.38,2.46863,2.98368,5.95356,0.564203,-4,140.006,0,-40
2.4,2.46029,2.99067,5.96444,0.484203,-4,140.004,0,-40
2.42,2.4548,2.99528,5.97162,0.404203,-4,140.003,0,-40
2.44,2.45134,2.99818,5.97612,0.324203,-4,140.003,0,-40
2.46,2.44789,3.00108,5.98063,0.244203,-4,140.002,0,-40
2.48,2.44444,3.00398,5.98514,0.164203,-4,140.002,0,-40
2.5,2.44098,3.00687,5.98965,0.0842032,-4,140.001,0,-40
2.52,2.43753,3.00977,5.99416,0.00420324,-4,140.001,0,-40
