"time","x","y","position","velocity","acceleration","heading","curvature","rotation"
0,7.71734,1.08872,0,0,2.5,180,0,0
0.02,7.71378,1.08872,0.00356371,0.05,2.5,180,0,-0.00352287
0.04,7.71021,1.08872,0.00712741,0.1,2.5,179.999,0,-0.0140915
0.06,7.70665,1.08872,0.0106911,0.15,2.5,179.999,0,-0.0317059
0.08,7.70309,1.08872,0.0142548,0.2,2.5,179.999,0,-0.056366
0.1,7.69952,1.08872,0.0178185,0.25,2.5,179.999,0,-0.0880718
0.12,7.69596,1.08872,0.0213822,0.3,2.5,179.998,0,-0.126823
0.14,7.69239,1.08872,0.0249459,0.35,2.5,179.998,0,-0.172621
0.16,7.68443,1.08872,0.0329074,0.4,2.5,179.997,0,-0.225464
0.18,7.67583,1.08872,0.0415109,0.45,2.5,179.995,0,-0.285353
0.2,7.66723,1.08872,0.0501144,0.5,2.5,179.993,0,-0.352287
0.22,7.65622,1.08872,0.0611189,0.55,2.5,179.99,0,-0.426268
0.24,7.64501,1.08873,0.0723313,0.6,2.5,179.986,0,-0.507294
0.26,7.63243,1.08873,0.0849109,0.65,2.5,179.981,0,-0.595366
0.28,7.61913,1.08874,0.0982109,0.7,2.5,179.975,0,-0.690483
0.3,7.60449,1.08874,0.112849,0.75,2.5,179.967,0,-0.792646
0.32,7.58929,1.08875,0.128046,0.8,2.5,179.958,0,-0.901855
0.34,7.5726,1.08877,0.144744,0.85,2.5,179.947,0,-1.01811
0.36,7.55511,1.08878,0.162232,0.9,2.5,179.934,0,-1.14141
0.38,7.53676,1.08881,0.180583,0.95,2.5,179.918,0,-1.27176
0.4,7.51725,1.08884,0.200091,1,2.5,179.9,0,-1.40915
0.42,7.49668,1.08888,0.220661,1.05,2.5,179.879,0,-1.55359
0.44,7.47517,1.08893,0.242166,1.1,2.5,179.854,0,-1.70507
0.46,7.45269,1.08899,0.264647,1.15,2.5,179.826,0,-1.8636
0.48,7.42922,1.08907,0.288125,1.2,2.5,179.794,0,-2.02917
0.5,7.40473,1.08917,0.312608,1.25,2.5,179.758,0,-2.2018
0.52,7.37924,1.08928,0.338101,1.3,2.5,179.717,0,-2.38146
0.54,7.35274,1.08942,0.3646,1.35,2.5,179.672,0,-2.56817
0.56,7.32524,1.08959,0.392101,1.4,2.5,179.621,0,-2.76193
0.58,7.29675,1.08979,0.420595,1.45,2.5,179.564,0,-2.96274
0.6,7.26727,1.09003,0.450073,1.5,2.5,179.501,0,-3.17059
0.62,7.23682,1.09031,0.480526,1.55,2.5,179.432,0,-3.38548
0.64,7.20531,1.09065,0.512041,1.6,2.5,179.355,0,-3.60742
0.66,7.17278,1.09104,0.544573,1.65,2.5,179.27,0,-3.83641
0.68,7.1393,1.0915,0.578052,1.7,2.5,179.177,0,-4.07244
0.7,7.10483,1.09202,0.612526,1.75,2.5,179.076,0,-4.31552
0.72,7.0693,1.09263,0.648062,1.8,2.5,178.965,0,-4.56564
0.74,7.03286,1.09332,0.684512,1.85,2.5,178.844,0,-4.82281
0.76,6.99532,1.09412,0.722055,1.9,2.5,178.712,0,-5.08703
0.78,6.95688,1.09503,0.760512,1.95,2.5,178.569,0,-5.35829
0.8,6.91735,1.09608,0.80005,2,2.5,178.412,0,-5.6366
0.82,6.8769,1.09726,0.840516,2.05,2.5,178.244,0,-5.92195
0.84,6.8354,1.0986,0.882037,2.1,2.5,178.06,0,-6.21435
0.86,6.79293,1.10011,0.924542,2.15,2.5,177.862,0,-6.51379
0.88,6.74948,1.10181,0.968016,2.2,2.5,177.648,0,-6.82028
0.9,6.70502,1.10372,1.01252,2.25,2.5,177.417,0,-7.13382
0.92,6.65956,1.10588,1.05803,2.3,2.5,177.167,0,-7.4544
0.94,6.61312,1.10828,1.10454,2.35,2.5,176.897,0,-7.78203
0.96,6.5657,1.11097,1.15203,2.4,2.5,176.607,0,-8.1167
0.98,6.5173,1.11397,1.20053,2.45,2.5,176.295,0,-8.45842
1,6.46792,1.11731,1.25002,2.5,2.5,175.959,0,-8.80718
1.02,6.41755,1.12102,1.30052,2.55,2.5,175.597,0,-9.16299
1.04,6.36622,1.12518,1.35202,2.6,2.5,175.206,0,-9.52585
1.06,6.31392,1.12976,1.40452,2.65,2.5,174.787,0,-9.89575
1.08,6.26066,1.13482,1.45803,2.7,2.5,174.338,0,-10.2727
1.1,6.20645,1.14042,1.51253,2.75,2.5,173.856,0,-10.6567
1.12,6.1513,1.1466,1.56802,2.8,2.5,173.34,0,-11.0477
1.14,6.09523,1.15341,1.6245,2.85,2.5,172.786,0,-11.4458
1.16,6.03821,1.16094,1.68202,2.9,2.5,172.191,0,-11.8509
1.18,5.98029,1.16922,1.74052,2.95,2.5,171.556,0,-12.2631
1.2,5.9215,1.17827,1.80001,3,2.5,170.879,0,-12.6823
1.22,5.86182,1.18823,1.86052,3.05,2.5,170.154,0,-13.1086
1.24,5.8013,1.19918,1.92202,3.1,2.5,169.381,0,-13.5419
1.26,5.73996,1.21113,1.98451,3.15,2.5,168.56,0,-13.9823
1.28,5.67781,1.22421,2.04802,3.2,2.5,167.687,0,-14.4297
1.3,5.61492,1.23846,2.11251,3.25,2.5,166.763,0,-14.8841
1.32,5.55128,1.254,2.17801,3.3,2.5,165.787,0,-15.3456
1.34,5.48697,1.2709,2.24452,3.35,2.5,164.76,0,-15.8142
1.36,5.42202,1.28923,2.312,3.4,2.5,163.683,0,-16.2898
1.38,5.35646,1.30911,2.38051,3.45,2.5,162.558,0,-16.7724
1.4,5.29037,1.33063,2.45002,3.5,2.5,161.388,0,-17.2621
1.42,5.2238,1.35381,2.52051,3.55,2.5,160.179,0,-17.7588
1.44,5.1568,1.37876,2.592,3.6,2.5,158.937,0,-18.2626
1.46,5.08945,1.40559,2.66451,3.65,2.5,157.668,0,-18.7734
1.48,5.02178,1.43429,2.73801,3.7,2.5,156.382,0,-19.2913
1.5,4.95387,1.46492,2.81251,3.75,1.26056,155.089,0,-19.8162
1.52,4.88607,1.49734,2.88767,3.76,0,153.804,0,-20.3451
1.54,4.81896,1.53127,2.96287,3.76,0,152.548,0,-20.8679
1.56,4.7526,1.56664,3.03807,3.76,0,151.332,0,-21.3836
1.58,4.68699,1.60339,3.11327,3.76,0,150.163,0,-21.8922
1.6,4.62214,1.64145,3.18847,3.76,0,149.048,0,-22.3939
1.62,4.558,1.68071,3.26367,3.76,0,147.993,0,-22.8884
1.64,4.49459,1.72114,3.33887,3.76,0,147.004,0,-23.3759
1.66,4.43187,1.7626,3.41406,3.75777,-1.50098,146.081,0,-23.8564
1.68,4.37014,1.80478,3.48883,3.71452,-2.5,145.232,0,-24.3299
1.7,4.30981,1.84727,3.56262,3.66452,-2.5,144.461,0,-24.7962
1.72,4.25082,1.88993,3.63542,3.61452,-2.5,143.764,0,-25.2556
1.74,4.19316,1.9327,3.70721,3.56452,-2.5,143.141,0,-25.7079
1.76,4.13674,1.97545,3.77799,3.51452,-2.5,142.585,0,-26.1531
1.78,4.0815,2.01809,3.84778,3.46452,-2.5,142.09,0,-26.5913
1.8,4.02739,2.06057,3.91657,3.41452,-2.5,141.652,0,-27.0225
1.82,3.97435,2.1028,3.98437,3.36452,-2.5,141.266,0,-27.4466
1.84,3.92239,2.14475,4.05115,3.31452,-2.5,140.932,0,-27.8637
1.86,3.87141,2.18636,4.11695,3.26452,-2.5,140.639,0,-28.2737
1.88,3.82142,2.22755,4.18173,3.21452,-2.5,140.387,0,-28.6767
1.9,3.77235,2.26833,4.24553,3.16452,-2.5,140.17,0,-29.0726
1.92,3.72421,2.30861,4.30831,3.11452,-2.5,139.985,0,-29.4615
1.94,3.67692,2.34842,4.37011,3.06452,-2.5,139.828,0,-29.8433
1.96,3.63053,2.38768,4.43089,3.01452,-2.5,139.699,0,-30.2181
1.98,3.58497,2.4264,4.49068,2.96452,-2.5,139.591,0,-30.5859
2,3.54023,2.46455,4.54948,2.91452,-2.5,139.504,0,-30.9466
2.02,3.49632,2.5021,4.60726,2.86452,-2.5,139.434,0,-31.3002
2.04,3.45319,2.53905,4.66405,2.81452,-2.5,139.38,0,-31.6468
2.06,3.41085,2.57539,4.71985,2.76452,-2.5,139.34,0,-31.9864
2.08,3.36929,2.61111,4.77465,2.71452,-2.5,139.312,0,-32.3189
2.1,3.32851,2.64618,4.82843,2.66452,-2.5,139.294,0,-32.6444
2.12,3.2885,2.68061,4.88121,2.61452,-2.5,139.286,0,-32.9628
2.14,3.24925,2.71439,4.933,2.56452,-2.5,139.285,0,-33.2742
2.16,3.21075,2.74752,4.98379,2.51452,-2.5,139.291,0,-33.5785
2.18,3.173,2.77999,5.03358,2.46452,-2.5,139.302,0,-33.8758
2.2,3.136,2.81181,5.08238,2.41452,-2.5,139.318,0,-34.1661
2.22,3.09975,2.84296,5.13018,2.36452,-2.5,139.338,0,-34.4493
2.24,3.06426,2.87343,5.17695,2.31452,-2.5,139.362,0,-34.7254
2.26,3.02952,2.90323,5.22273,2.26452,-2.5,139.388,0,-34.9945
2.28,2.99551,2.93238,5.26752,2.21452,-2.5,139.415,0,-35.2566
2.3,2.96223,2.96087,5.31133,2.16452,-2.5,139.444,0,-35.5116
2.32,2.92972,2.98868,5.35411,2.11452,-2.5,139.474,0,-35.7596
2.34,2.89796,3.01581,5.39588,2.06452,-2.5,139.505,0,-36.0005
2.36,2.86691,3.04232,5.43671,2.01452,-2.5,139.536,0,-36.2344
2.38,2.83666,3.06811,5.47646,1.96452,-2.5,139.566,0,-36.4612
2.4,2.80711,3.09327,5.51527,1.91452,-2.5,139.597,0,-36.681
2.42,2.77835,3.11774,5.55304,1.86452,-2.5,139.626,0,-36.8937
2.44,2.75028,3.14159,5.58986,1.81452,-2.5,139.655,0,-37.0994
2.46,2.72304,3.16472,5.62561,1.76452,-2.5,139.684,0,-37.2981
2.48,2.69648,3.18725,5.66043,1.71452,-2.5,139.711,0,-37.4897
2.5,2.67071,3.20908,5.69421,1.66452,-2.5,139.737,0,-37.6742
2.52,2.64571,3.23025,5.72696,1.61452,-2.5,139.761,0,-37.8517
2.54,2.62143,3.25079,5.75877,1.56452,-2.5,139.785,0,-38.0222
2.56,2.59788,3.27069,5.7896,1.51452,-2.5,139.807,0,-38.1856
2.58,2.57513,3.2899,5.81938,1.46452,-2.5,139.827,0,-38.342
2.6,2.55316,3.30845,5.84813,1.41452,-2.5,139.847,0,-38.4913
2.62,2.53193,3.32635,5.8759,1.36452,-2.5,139.864,0,-38.6336
2.64,2.51146,3.34361,5.90267,1.31452,-2.5,139.881,0,-38.7689
2.66,2.49174,3.36022,5.92845,1.26452,-2.5,139.896,0,-38.897
2.68,2.47278,3.37618,5.95324,1.21452,-2.5,139.91,0,-39.0182
2.7,2.45458,3.3915,5.97703,1.16452,-2.5,139.922,0,-39.1323
2.72,2.43713,3.40618,5.99983,1.11452,-2.5,139.934,0,-39.2393
2.74,2.4204,3.42024,6.02169,1.06452,-2.5,139.944,0,-39.3394
2.76,2.4045,3.43361,6.04246,1.01452,-2.5,139.953,0,-39.4323
2.78,2.38944,3.44627,6.06213,0.964524,-2.5,139.96,0,-39.5182
2.8,2.37509,3.45832,6.08087,0.914524,-2.5,139.967,0,-39.5971
2.82,2.36138,3.46985,6.09879,0.864524,-2.5,139.973,0,-39.6689
2.84,2.34859,3.48058,6.11548,0.814524,-2.5,139.978,0,-39.7337
2.86,2.3366,3.49066,6.13114,0.764524,-2.5,139.983,0,-39.7914
2.88,2.32503,3.50036,6.14624,0.714524,-2.5,139.987,0,-39.8421
2.9,2.3148,3.50895,6.1596,0.664524,-2.5,139.99,0,-39.8858
2.92,2.3047,3.51743,6.17279,0.614524,-2.5,139.992,0,-39.9224
2.94,2.29611,3.52464,6.184,0.564524,-2.5,139.994,0,-39.9519
2.96,2.28752,3.53185,6.19522,0.514524,-2.5,139.996,0,-39.9744
2.98,2.28051,3.53773,6.20437,0.464524,-2.5,139.997,0,-39.9899
3,2.27392,3.54326,6.21297,0.414524,-2.5,139.998,0,-39.9983
3.02,2.26733,3.54879,6.22158,0.364524,-2.5,139.999,0,-40
3.04,2.26397,3.55161,6.22596,0.314524,-2.5,139.999,0,-40
3.06,2.26124,3.5539,6.22953,0.264524,-2.5,139.999,0,-40
3.08,2.25851,3.55619,6.23309,0.214524,-2.5,139.999,0,-40
3.1,2.25578,3.55848,6.23665,0.164524,-2.5,139.999,0,-40
3.12,2.25305,3.56078,6.24022,0.114524,-2.5,139.999,0,-40
3.14,2.25032,3.56307,6.24378,0.064524,-2.5,140,0,-40
3.16,2.24759,3.56536,6.24734,0.014524,-2.5,140,0,-40
