"time","x","y","position","velocity","acceleration","heading","curvature","rotation"
0,7.65604,2.00428,0,0,2,-150,0,30
0.02,7.65328,2.00269,0.00318748,0.04,2,-150.001,0,29.9953
0.04,7.65052,2.00109,0.00637495,0.08,2,-150.001,0,29.9812
0.06,7.64776,1.9995,0.00956243,0.12,2,-150.002,0,29.9577
0.08,7.645,1.99791,0.0127499,0.16,2,-150.002,0,29.9248
0.1,7.64224,1.99631,0.0159374,0.2,2,-150.003,0,29.8826
0.12,7.63948,1.99472,0.0191249,0.24,2,-150.003,0,29.8309
0.14,7.63672,1.99312,0.0223123,0.28,2,-150.004,0,29.7698
0.16,7.63383,1.99146,0.0256409,0.32,2,-150.005,0,29.6994
0.18,7.62717,1.98761,0.0333362,0.36,2,-150.008,0,29.6195
0.2,7.6205,1.98377,0.0410314,0.4,2,-150.012,0,29.5303
0.22,7.61384,1.97992,0.0487267,0.44,2,-150.016,0,29.4316
0.24,7.6057,1.97522,0.0581266,0.48,2,-150.022,0,29.3236
0.26,7.59701,1.97021,0.0681553,0.52,2,-150.03,0,29.2062
0.28,7.588,1.96502,0.0785533,0.56,2,-150.039,0,29.0794
0.3,7.57769,1.95908,0.0904491,0.6,2,-150.052,0,28.9431
0.32,7.5673,1.95309,0.102446,0.64,2,-150.066,0,28.7975
0.34,7.5556,1.94636,0.115948,0.68,2,-150.084,0,28.6425
0.36,7.54367,1.9395,0.12971,0.72,2,-150.104,0,28.4781
0.38,7.53072,1.93206,0.144645,0.76,2,-150.129,0,28.3043
0.4,7.51722,1.92431,0.160208,0.8,2,-150.158,0,28.1211
0.42,7.50313,1.91623,0.176449,0.84,2,-150.19,0,27.9286
0.44,7.48807,1.90761,0.193798,0.88,2,-150.229,0,27.7266
0.46,7.47247,1.89869,0.211767,0.92,2,-150.273,0,27.5152
0.48,7.45625,1.88944,0.230445,0.96,2,-150.321,0,27.2944
0.5,7.43918,1.87972,0.250087,1,2,-150.377,0,27.0643
0.52,7.4214,1.86962,0.270537,1.04,2,-150.441,0,26.8247
0.54,7.40295,1.85917,0.291738,1.08,2,-150.511,0,26.5758
0.56,7.38381,1.84837,0.313716,1.12,2,-150.59,0,26.3174
0.58,7.36397,1.8372,0.336488,1.16,2,-150.678,0,26.0497
0.6,7.3434,1.82567,0.360063,1.2,2,-150.774,0,25.7726
0.62,7.32211,1.81379,0.384448,1.24,2,-150.881,0,25.486
0.64,7.30009,1.80155,0.409643,1.28,2,-150.999,0,25.1901
0.66,7.27733,1.78897,0.435647,1.32,2,-151.128,0,24.8848
0.68,7.25384,1.77605,0.462456,1.36,2,-151.269,0,24.5701
0.7,7.22961,1.76281,0.490068,1.4,2,-151.424,0,24.246
0.72,7.20464,1.74926,0.518475,1.44,2,-151.592,0,23.9125
0.74,7.17894,1.73541,0.547673,1.48,2,-151.775,0,23.5696
0.76,7.1525,1.72127,0.577654,1.52,2,-151.973,0,23.2173
0.78,7.12532,1.70686,0.608412,1.56,2,-152.187,0,22.8556
0.8,7.09732,1.69217,0.64004,1.6,2,-152.421,0,22.4845
0.82,7.06854,1.67723,0.67246,1.64,2,-152.674,0,22.1041
0.84,7.03903,1.66206,0.705639,1.68,2,-152.946,0,21.7142
0.86,7.00873,1.64668,0.739623,1.72,2,-153.239,0,21.3149
0.88,6.97758,1.63109,0.774452,1.76,2,-153.556,0,20.9063
0.9,6.9457,1.61534,0.81002,1.8,2,-153.895,0,20.4882
0.92,6.91294,1.59942,0.846442,1.84,2,-154.261,0,20.0608
0.94,6.87938,1.58338,0.883631,1.88,2,-154.653,0,19.624
0.96,6.84498,1.56724,0.921635,1.92,2,-155.075,0,19.1777
0.98,6.80974,1.55103,0.960426,1.96,2,-155.526,0,18.7221
1,6.77362,1.53477,1.00004,2,2,-156.011,0,18.2571
1.02,6.73666,1.51854,1.04041,2.04,2,-156.53,0,17.7827
1.04,6.69875,1.50232,1.08164,2.08,2,-157.087,0,17.2989
1.06,6.65999,1.48617,1.12363,2.12,2,-157.681,0,16.8057
1.08,6.62033,1.47013,1.16641,2.16,2,-158.316,0,16.3031
1.1,6.57969,1.45426,1.21003,2.2,2,-158.996,0,15.7911
1.12,6.53815,1.43861,1.25443,2.24,2,-159.722,0,15.2697
1.14,6.49566,1.42323,1.29962,2.28,2,-160.496,0,14.7389
1.16,6.45221,1.40818,1.3456,2.32,2,-161.322,0,14.1987
1.18,6.40774,1.39354,1.39242,2.36,2,-162.203,0,13.6492
1.2,6.3623,1.37935,1.44002,2.4,2,-163.142,0,13.0902
1.22,6.31586,1.36571,1.48843,2.44,2,-164.14,0,12.5219
1.24,6.26841,1.3527,1.53763,2.48,2,-165.203,0,11.9441
1.26,6.21995,1.3404,1.58763,2.52,2,-166.331,0,11.357
1.28,6.17047,1.3289,1.63842,2.56,2,-167.526,0,10.7604
1.3,6.11998,1.3183,1.69002,2.6,2,-168.792,0,10.1545
1.32,6.06846,1.30873,1.74242,2.64,2,-170.13,0,9.53915
1.34,6.01594,1.30026,1.79562,2.68,2,-171.54,0,8.91443
1.36,5.96245,1.293,1.84961,2.72,2,-173.022,0,8.28031
1.38,5.90798,1.28705,1.9044,2.76,2,-174.575,0,7.6368
1.4,5.85256,1.28256,1.96001,2.8,2,-176.198,0,6.9839
1.42,5.79623,1.27965,2.01642,2.84,2,-177.888,0,6.3216
1.44,5.73904,1.27843,2.07362,2.88,2,-179.639,0,5.6499
1.46,5.68106,1.27891,2.13161,2.92,2,178.557,0,4.96881
1.48,5.62231,1.28141,2.19041,2.96,2,176.703,0,4.27833
1.5,5.56287,1.28582,2.25002,3,2,174.813,0,3.57845
1.52,5.50284,1.29228,2.3104,3.04,2,172.895,0,2.86918
1.54,5.44224,1.3009,2.37162,3.08,2,170.961,0,2.15051
1.56,5.38119,1.31167,2.43361,3.12,2,169.023,0,1.42245
1.58,5.31976,1.32467,2.49641,3.16,2,167.094,0,0.684999
1.6,5.25802,1.3399,2.56001,3.2,2,165.186,0,-0.0618496
1.62,5.19604,1.3574,2.62441,3.24,2,163.311,0,-0.818093
1.64,5.1339,1.37711,2.68961,3.28,2,161.48,0,-1.58373
1.66,5.07166,1.39907,2.75561,3.32,2,159.703,0,-2.35876
1.68,5.00937,1.42317,2.82241,3.36,2,157.988,0,-3.14319
1.7,4.94707,1.44941,2.89001,3.4,2,156.343,0,-3.93701
1.72,4.8848,1.47772,2.95841,3.44,2,154.772,0,-4.74022
1.74,4.8226,1.50802,3.02761,3.48,2,153.281,0,-5.5485
1.76,4.76045,1.54022,3.0976,3.52,2,151.869,0,-6.34835
1.78,4.69847,1.57437,3.16837,3.54941,-1.48189,150.549,0,-7.13881
1.8,4.63734,1.60977,3.23902,3.51312,-2,149.324,0,-7.91987
1.82,4.57761,1.64601,3.30888,3.47312,-2,148.204,0,-8.69154
1.84,4.51921,1.6829,3.37796,3.43312,-2,147.18,0,-9.45381
1.86,4.46218,1.72039,3.44621,3.39312,-2,146.253,0,-10.2067
1.88,4.40637,1.75828,3.51367,3.35312,-2,145.408,0,-10.9502
1.9,4.35174,1.79651,3.58034,3.31312,-2,144.643,0,-11.6843
1.92,4.29827,1.83494,3.64619,3.27312,-2,143.949,0,-12.409
1.94,4.24587,1.87351,3.71126,3.23312,-2,143.321,0,-13.1243
1.96,4.19454,1.91216,3.77552,3.19312,-2,142.757,0,-13.8302
1.98,4.14419,1.9508,3.83898,3.15312,-2,142.247,0,-14.5267
2,4.09481,1.98937,3.90164,3.11312,-2,141.79,0,-15.2138
2.02,4.04632,2.02781,3.96351,3.07312,-2,141.379,0,-15.8915
2.04,3.99876,2.06607,4.02456,3.03312,-2,141.013,0,-16.5599
2.06,3.95202,2.10412,4.08483,2.99312,-2,140.685,0,-17.2188
2.08,3.9061,2.14191,4.14429,2.95312,-2,140.393,0,-17.8683
2.1,3.861,2.17941,4.20295,2.91312,-2,140.137,0,-18.5085
2.12,3.81666,2.21658,4.26081,2.87312,-2,139.911,0,-19.1392
2.14,3.77305,2.25342,4.31789,2.83312,-2,139.712,0,-19.7606
2.16,3.73021,2.28986,4.37414,2.79312,-2,139.54,0,-20.3726
2.18,3.68806,2.3259,4.4296,2.75312,-2,139.392,0,-20.9751
2.2,3.6466,2.36152,4.48426,2.71312,-2,139.264,0,-21.5683
2.22,3.60582,2.39671,4.53812,2.67312,-2,139.156,0,-22.1521
2.24,3.56571,2.43145,4.59119,2.63312,-2,139.066,0,-22.7265
2.26,3.52624,2.46572,4.64345,2.59312,-2,138.992,0,-23.2915
2.28,3.48743,2.49951,4.69491,2.55312,-2,138.933,0,-23.8471
2.3,3.44924,2.5328,4.74558,2.51312,-2,138.888,0,-24.3933
2.32,3.41169,2.5656,4.79544,2.47312,-2,138.855,0,-24.9301
2.34,3.37475,2.59789,4.84449,2.43312,-2,138.832,0,-25.4575
2.36,3.33843,2.62966,4.89275,2.39312,-2,138.819,0,-25.9755
2.38,3.30271,2.66091,4.94021,2.35312,-2,138.815,0,-26.4841
2.4,3.26759,2.69164,4.98687,2.31312,-2,138.819,0,-26.9834
2.42,3.23306,2.72184,5.03275,2.27312,-2,138.829,0,-27.4732
2.44,3.19913,2.7515,5.07782,2.23312,-2,138.846,0,-27.9537
2.46,3.16582,2.78061,5.12206,2.19312,-2,138.868,0,-28.4247
2.48,3.13308,2.80919,5.16552,2.15312,-2,138.895,0,-28.8864
2.5,3.1009,2.83725,5.20821,2.11312,-2,138.925,0,-29.3386
2.52,3.06936,2.86473,5.25004,2.07312,-2,138.959,0,-29.7815
2.54,3.03838,2.89168,5.2911,2.03312,-2,138.996,0,-30.215
2.56,3.00797,2.9181,5.33139,1.99312,-2,139.034,0,-30.639
2.58,2.97818,2.94394,5.37082,1.95312,-2,139.075,0,-31.0537
2.6,2.94894,2.96928,5.40952,1.91312,-2,139.117,0,-31.459
2.62,2.92033,2.99403,5.44734,1.87312,-2,139.16,0,-31.8549
2.64,2.89226,3.01827,5.48444,1.83312,-2,139.203,0,-32.2414
2.66,2.86482,3.04193,5.52067,1.79312,-2,139.247,0,-32.6185
2.68,2.83794,3.06508,5.55614,1.75312,-2,139.29,0,-32.9862
2.7,2.81165,3.08769,5.59081,1.71312,-2,139.334,0,-33.3445
2.72,2.78598,3.10972,5.62464,1.67312,-2,139.376,0,-33.6935
2.74,2.76087,3.13125,5.65772,1.63312,-2,139.418,0,-34.033
2.76,2.73633,3.15225,5.69002,1.59312,-2,139.459,0,-34.3631
2.78,2.71245,3.17266,5.72144,1.55312,-2,139.498,0,-34.6839
2.8,2.68914,3.19256,5.75208,1.51312,-2,139.537,0,-34.9952
2.82,2.66641,3.21193,5.78194,1.47312,-2,139.574,0,-35.2972
2.84,2.64427,3.23078,5.81102,1.43312,-2,139.609,0,-35.5897
2.86,2.62272,3.2491,5.83931,1.39312,-2,139.643,0,-35.8729
2.88,2.60177,3.2669,5.86679,1.35312,-2,139.675,0,-36.1466
2.9,2.58145,3.28414,5.89345,1.31312,-2,139.706,0,-36.411
2.92,2.56172,3.30086,5.91931,1.27312,-2,139.734,0,-36.666
2.94,2.54259,3.31706,5.94437,1.23312,-2,139.761,0,-36.9116
2.96,2.52406,3.33273,5.96864,1.19312,-2,139.786,0,-37.1478
2.98,2.50616,3.34785,5.99207,1.15312,-2,139.81,0,-37.3746
3,2.48888,3.36245,6.01469,1.11312,-2,139.831,0,-37.592
3.02,2.47221,3.37652,6.03651,1.07312,-2,139.851,0,-37.8
3.04,2.45612,3.39008,6.05755,1.03312,-2,139.869,0,-37.9986
3.06,2.44062,3.40314,6.07782,0.993118,-2,139.886,0,-38.1878
3.08,2.42566,3.41574,6.09738,0.953118,-2,139.901,0,-38.3676
3.1,2.41145,3.42771,6.11596,0.913118,-2,139.915,0,-38.5381
3.12,2.39785,3.43915,6.13374,0.873118,-2,139.927,0,-38.6991
3.14,2.38473,3.45019,6.15088,0.833118,-2,139.938,0,-38.8508
3.16,2.3723,3.46064,6.16712,0.793118,-2,139.948,0,-38.993
3.18,2.36056,3.47051,6.18246,0.753118,-2,139.956,0,-39.1259
3.2,2.34912,3.48012,6.19739,0.713118,-2,139.964,0,-39.2493
3.22,2.33877,3.48881,6.21091,0.673118,-2,139.97,0,-39.3634
3.24,2.32857,3.49738,6.22423,0.633118,-2,139.976,0,-39.468
3.26,2.31946,3.50503,6.23613,0.593118,-2,139.98,0,-39.5633
3.28,2.31035,3.51268,6.24802,0.553118,-2,139.985,0,-39.6492
3.3,2.30263,3.51916,6.2581,0.513118,-2,139.988,0,-39.7257
3.32,2.29495,3.52561,6.26813,0.473118,-2,139.99,0,-39.7928
3.34,2.28806,3.53139,6.27713,0.433118,-2,139.993,0,-39.8505
3.36,2.28216,3.53634,6.28482,0.393118,-2,139.994,0,-39.8988
3.38,2.27627,3.54129,6.29252,0.353118,-2,139.996,0,-39.9377
3.4,2.27086,3.54582,6.29958,0.313118,-2,139.997,0,-39.9672
3.42,2.26842,3.54787,6.30277,0.273118,-2,139.997,0,-39.9873
3.44,2.26598,3.54992,6.30595,0.233118,-2,139.997,0,-39.9981
3.46,2.26354,3.55197,6.30914,0.193118,-2,139.998,0,-40
3.48,2.26109,3.55402,6.31233,0.153118,-2,139.998,0,-40
3.5,2.25865,3.55607,6.31552,0.113118,-2,139.998,0,-40
3.52,2.25621,3.55812,6.3187,0.0731184,-2,139.999,0,-40
3.54,2.25377,3.56017,6.32189,0.0331184,-2,139.999,0,-40
